#Wave		#Intensity
4003.722656	19017.498047
4003.021484	18725.607422
4002.319336	18780.955078
4001.617188	18654.341797
4000.915039	18891.595703
4000.212891	18902.277344
3999.510742	18885.501953
3998.807617	18741.798828
3998.105469	18893.130859
3997.402344	18766.619141
3996.700195	19130.498047
3995.997070	18805.136719
3995.293945	18774.679688
3994.590820	18843.626953
3993.887695	18768.625000
3993.183594	18697.072266
3992.480469	18639.246094
3991.776367	18865.724609
3991.073242	18999.666016
3990.369141	18893.880859
3989.665039	18839.482422
3988.960938	18709.794922
3988.256836	18741.001953
3987.552734	18967.242188
3986.848633	18971.027344
3986.143555	18837.978516
3985.439453	19231.683594
3984.734375	18958.431641
3984.029297	18548.503906
3983.324219	18757.460938
3982.619141	18969.769531
3981.914063	18925.701172
3981.208984	19151.580078
3980.503906	18786.361328
3979.797852	19087.335938
3979.091797	18882.759766
3978.386719	18920.691406
3977.680664	19166.871094
3976.974609	18781.460938
3976.268555	19003.693359
3975.562500	18881.193359
3974.855469	18728.023438
3974.149414	18902.396484
3973.442383	18936.867188
3972.736328	18671.222656
3972.029297	18968.267578
3971.322266	18624.292969
3970.615234	18713.324219
3969.908203	18925.015625
3969.201172	18949.224609
3968.493164	19198.285156
3967.786133	19198.595703
3967.078125	18861.726563
3966.371094	18998.302734
3965.663086	19097.384766
3964.955078	19308.771484
3964.247070	19155.898438
3963.539063	18992.863281
3962.830078	19279.019531
3962.122070	19153.439453
3961.414063	19072.117188
3960.705078	19167.669922
3959.996094	18844.945313
3959.287109	19181.890625
3958.578125	19005.435547
3957.869141	18934.396484
3957.160156	19029.892578
3956.451172	19200.105469
3955.741211	19247.966797
3955.032227	19241.468750
3954.322266	18949.707031
3953.612305	19038.330078
3952.902344	19442.650391
3952.192383	19120.445313
3951.482422	19178.453125
3950.772461	19361.992188
3950.061523	19212.984375
3949.351563	19284.515625
3948.640625	18830.320313
3947.929688	19312.210938
3947.219727	19251.458984
3946.508789	19600.916016
3945.796875	19207.970703
3945.085938	19184.542969
3944.375000	19405.082031
3943.663086	19195.298828
3942.952148	19134.621094
3942.240234	19185.724609
3941.528320	19307.921875
3940.817383	19138.914063
3940.104492	19000.427734
3939.392578	19230.898438
3938.680664	19309.015625
3937.968750	19214.550781
3937.255859	19065.990234
3936.543945	19228.652344
3935.831055	19709.152344
3935.118164	19452.382813
3934.405273	19300.496094
3933.692383	19277.105469
3932.979492	19547.748047
3932.265625	19287.789063
3931.552734	19234.003906
3930.838867	19450.474609
3930.125977	19525.021484
3929.412109	19508.367188
3928.698242	19640.279297
3927.984375	19518.960938
3927.270508	19789.212891
3926.555664	19431.677734
3925.841797	19786.210938
3925.127930	19489.515625
3924.413086	19607.808594
3923.698242	19715.943359
3922.983398	19766.718750
3922.268555	19567.988281
3921.553711	19261.453125
3920.838867	19494.277344
3920.124023	19454.068359
3919.408203	19626.136719
3918.693359	19690.351563
3917.977539	19663.601563
3917.261719	19586.343750
3916.545898	19418.201172
3915.830078	19788.763672
3915.114258	19543.220703
3914.398438	19671.326172
3913.681641	19462.894531
3912.965820	19365.556641
3912.249023	19510.447266
3911.533203	19440.037109
3910.816406	19981.677734
3910.099609	19329.544922
3909.382813	19555.027344
3908.665039	19622.462891
3907.948242	19800.775391
3907.231445	19794.226563
3906.513672	19649.937500
3905.795898	19650.130859
3905.078125	19499.193359
3904.361328	19580.000000
3903.642578	19560.060547
3902.924805	19785.173828
3902.207031	19922.951172
3901.489258	19527.119141
3900.770508	19789.037109
3900.051758	19816.041016
3899.333984	19732.349609
3898.615234	19987.398438
3897.896484	19823.232422
3897.177734	19642.357422
3896.458008	19692.826172
3895.739258	19739.925781
3895.020508	19793.710938
3894.300781	19971.441406
3893.581055	20078.769531
3892.861328	19814.292969
3892.142578	19730.732422
3891.421875	19831.349609
3890.702148	19573.732422
3889.982422	19677.689453
3889.262695	19818.421875
3888.541992	19972.494141
3887.821289	19775.240234
3887.101563	19598.117188
3886.380859	19782.248047
3885.660156	19789.093750
3884.939453	19424.826172
3884.217773	19799.435547
3883.497070	19926.595703
3882.775391	19940.095703
3882.054688	19976.978516
3881.333008	19576.224609
3880.611328	19877.021484
3879.889648	19957.310547
3879.167969	19680.296875
3878.446289	19747.236328
3877.724609	19934.320313
3877.001953	19624.066406
3876.280273	19537.484375
3875.557617	19958.056641
3874.834961	19764.701172
3874.112305	20088.375000
3873.389648	19978.429688
3872.666992	19841.843750
3871.944336	20015.333984
3871.220703	19838.789063
3870.498047	20375.474609
3869.774414	19892.376953
3869.050781	19702.609375
3868.328125	19995.894531
3867.604492	19902.753906
3866.879883	19583.207031
3866.156250	19972.919922
3865.432617	19956.390625
3864.708008	19969.818359
3863.984375	20123.007813
3863.259766	20049.896484
3862.535156	19647.464844
3861.810547	19724.130859
3861.085938	19734.257813
3860.361328	19880.708984
3859.636719	19970.595703
3858.911133	20140.230469
3858.186523	19897.697266
3857.460938	19927.722656
3856.735352	19502.568359
3856.009766	19894.732422
3855.284180	20034.347656
3854.558594	20373.166016
3853.833008	19855.242188
3853.107422	19881.923828
3852.380859	19812.339844
3851.655273	19815.787109
3850.928711	19812.597656
3850.202148	19922.207031
3849.475586	19991.974609
3848.749023	19677.001953
3848.022461	19869.478516
3847.294922	20158.042969
3846.568359	19889.603516
3845.840820	19912.916016
3845.114258	19966.046875
3844.386719	20158.320313
3843.659180	20072.253906
3842.931641	19645.052734
3842.204102	19718.060547
3841.475586	20009.583984
3840.748047	20012.984375
3840.019531	20062.724609
3839.291992	20059.496094
3838.563477	20297.830078
3837.834961	20069.582031
3837.106445	20344.224609
3836.377930	20006.894531
3835.648438	19861.476563
3834.919922	19914.488281
3834.191406	20076.576172
3833.461914	20020.460938
3832.732422	20473.300781
3832.002930	19766.195313
3831.273438	19905.074219
3830.543945	20225.585938
3829.814453	20321.412109
3829.084961	20579.011719
3828.354492	20133.281250
3827.625000	19918.771484
3826.894531	20093.796875
3826.164063	20163.162109
3825.433594	20225.908203
3824.703125	20315.023438
3823.972656	20242.486328
3823.242188	20057.843750
3822.510742	20308.513672
3821.780273	20618.445313
3821.048828	20555.792969
3820.317383	20127.330078
3819.585938	20054.890625
3818.854492	20216.398438
3818.123047	19995.728516
3817.391602	20400.925781
3816.659180	20170.416016
3815.927734	20344.970703
3815.195313	20088.207031
3814.463867	20252.843750
3813.731445	20246.292969
3812.999023	20453.625000
3812.266602	20371.375000
3811.533203	20552.304688
3810.800781	20203.664063
3810.068359	20338.523438
3809.334961	20440.460938
3808.601563	20710.017578
3807.868164	20585.074219
3807.134766	20447.027344
3806.401367	20161.164063
3805.667969	20568.568359
3804.934570	20463.435547
3804.200195	20568.517578
3803.466797	20617.746094
3802.732422	20384.613281
3801.998047	20263.162109
3801.263672	20341.951172
3800.529297	20761.990234
3799.794922	20079.490234
3799.060547	20545.361328
3798.325195	20335.421875
3797.590820	20719.117188
3796.855469	20364.945313
3796.121094	20246.927734
3795.385742	20486.226563
3794.650391	20492.761719
3793.914063	20466.527344
3793.178711	20725.332031
3792.443359	20627.001953
3791.707031	20787.441406
3790.971680	20725.152344
3790.235352	20757.833984
3789.499023	20738.126953
3788.762695	20721.697266
3788.026367	20636.550781
3787.290039	20400.917969
3786.552734	20656.082031
3785.816406	20518.650391
3785.079102	20616.732422
3784.342773	20551.287109
3783.605469	20600.289063
3782.868164	20701.578125
3782.130859	20583.857422
3781.393555	20773.345703
3780.655273	20515.156250
3779.917969	20894.064453
3779.179688	20675.132813
3778.442383	21099.611328
3777.704102	20890.511719
3776.965820	20929.589844
3776.227539	20763.017578
3775.489258	20965.283203
3774.750000	20935.806641
3774.011719	20775.835938
3773.272461	20769.232422
3772.534180	21069.208984
3771.794922	21010.382813
3771.055664	20782.033203
3770.316406	20873.226563
3769.577148	20788.384766
3768.837891	20742.673828
3768.097656	20824.054688
3767.358398	20856.541016
3766.618164	20589.343750
3765.877930	20866.115234
3765.137695	20579.464844
3764.397461	21142.648438
3763.657227	20660.734375
3762.916992	20940.566406
3762.176758	20937.199219
3761.435547	21018.423828
3760.694336	20754.794922
3759.954102	20777.476563
3759.212891	21001.779297
3758.471680	20926.867188
3757.730469	20910.496094
3756.989258	20965.640625
3756.247070	20630.771484
3755.505859	20815.921875
3754.763672	20819.070313
3754.021484	20958.650391
3753.280273	20867.585938
3752.538086	20838.251953
3751.795898	20847.886719
3751.052734	20909.458984
3750.310547	20854.164063
3749.568359	21064.996094
3748.825195	20802.029297
3748.082031	21029.021484
3747.339844	20921.841797
3746.596680	20960.636719
3745.853516	21018.875000
3745.109375	20652.375000
3744.366211	21093.154297
3743.623047	20956.876953
3742.878906	20878.972656
3742.134766	20891.814453
3741.391602	20697.322266
3740.647461	20988.742188
3739.903320	21001.558594
3739.159180	21117.986328
3738.414063	21001.279297
3737.669922	21111.193359
3736.924805	20810.048828
3736.180664	20974.966797
3735.435547	21146.302734
3734.690430	20644.736328
3733.945313	20919.566406
3733.200195	21055.255859
3732.455078	20680.041016
3731.708984	21090.507813
3730.963867	21077.419922
3730.217773	21109.578125
3729.471680	20909.080078
3728.725586	20967.099609
3727.979492	20824.830078
3727.233398	20734.281250
3726.487305	21254.064453
3725.741211	21186.072266
3724.994141	21124.560547
3724.248047	20801.634766
3723.500977	20943.505859
3722.753906	20888.511719
3722.006836	21017.417969
3721.259766	21114.029297
3720.512695	21265.431641
3719.764648	21194.296875
3719.017578	20881.392578
3718.269531	20713.638672
3717.522461	21087.386719
3716.774414	21009.880859
3716.026367	21064.494141
3715.278320	21312.371094
3714.529297	21138.240234
3713.781250	21092.976563
3713.033203	21034.847656
3712.284180	21221.400391
3711.535156	21153.613281
3710.787109	21259.630859
3710.038086	21169.333984
3709.289063	20779.865234
3708.539063	21191.474609
3707.790039	21307.064453
3707.041016	21268.265625
3706.291016	21223.048828
3705.541016	21650.392578
3704.791016	21421.925781
3704.041992	20833.609375
3703.291016	21350.773438
3702.541016	21437.291016
3701.791016	20740.046875
3701.041016	21330.839844
3700.290039	20999.888672
3699.539063	21340.031250
3698.788086	21448.949219
3698.038086	21224.046875
3697.286133	21557.572266
3696.535156	21294.222656
3695.784180	21470.441406
3695.033203	21005.125000
3694.281250	21415.433594
3693.529297	21434.433594
3692.778320	21559.220703
3692.026367	21443.566406
3691.274414	21311.925781
3690.521484	21388.605469
3689.769531	21244.201172
3689.017578	21147.888672
3688.264648	21237.367188
3687.511719	21147.492188
3686.759766	21685.181641
3686.006836	21220.720703
3685.253906	21313.330078
3684.500977	21249.097656
3683.747070	21204.085938
3682.994141	21603.767578
3682.240234	21389.183594
3681.487305	21456.103516
3680.733398	21123.300781
3679.979492	21577.085938
3679.225586	21525.667969
3678.471680	21640.458984
3677.717773	21247.123047
3676.962891	21678.230469
3676.208984	21457.517578
3675.454102	21693.617188
3674.699219	21437.843750
3673.944336	21408.851563
3673.189453	21197.900391
3672.434570	21497.724609
3671.679688	21471.927734
3670.923828	21570.583984
3670.168945	21733.015625
3669.413086	21493.470703
3668.658203	21142.371094
3667.902344	21435.535156
3667.146484	21632.955078
3666.389648	21498.775391
3665.633789	21696.119141
3664.877930	21641.640625
3664.121094	21415.121094
3663.365234	21612.380859
3662.608398	21503.791016
3661.851563	21764.669922
3661.094727	21509.613281
3660.337891	21442.480469
3659.581055	21798.736328
3658.823242	21699.750000
3658.066406	21884.009766
3657.308594	21489.142578
3656.550781	21622.478516
3655.792969	21552.207031
3655.035156	21710.929688
3654.277344	21589.791016
3653.519531	21773.888672
3652.761719	22062.820313
3652.002930	21646.117188
3651.244141	22068.435547
3650.486328	21715.408203
3649.727539	22026.396484
3648.968750	21816.410156
3648.209961	21644.597656
3647.450195	21660.167969
3646.691406	21929.695313
3645.932617	21846.818359
3645.172852	22106.707031
3644.413086	21814.408203
3643.653320	21956.835938
3642.893555	22118.248047
3642.133789	21610.425781
3641.374023	21844.773438
3640.613281	21876.136719
3639.853516	21818.728516
3639.092773	21846.916016
3638.333008	21694.462891
3637.572266	22007.816406
3636.811523	22254.541016
3636.049805	21807.527344
3635.289063	21981.367188
3634.528320	21813.179688
3633.766602	21882.488281
3633.005859	21951.771484
3632.244141	22033.693359
3631.482422	21546.005859
3630.720703	21979.150391
3629.958984	21988.269531
3629.197266	22152.363281
3628.434570	22072.906250
3627.672852	21939.722656
3626.910156	21689.613281
3626.147461	21935.828125
3625.384766	21932.300781
3624.622070	22121.519531
3623.859375	21858.904297
3623.096680	21890.134766
3622.333984	21990.835938
3621.570313	22303.074219
3620.806641	21926.935547
3620.043945	21951.820313
3619.280273	21926.197266
3618.516602	21913.203125
3617.752930	21969.628906
3616.988281	21966.095703
3616.224609	22006.722656
3615.459961	22214.480469
3614.696289	22251.898438
3613.931641	22043.398438
3613.166992	22014.636719
3612.402344	22124.554688
3611.637695	21944.533203
3610.873047	22410.449219
3610.107422	21865.025391
3609.342773	21946.548828
3608.577148	22116.220703
3607.811523	22528.281250
3607.045898	22272.810547
3606.280273	22011.125000
3605.514648	21985.556641
3604.749023	22000.900391
3603.982422	21846.351563
3603.216797	22264.345703
3602.450195	22119.236328
3601.683594	22181.716797
3600.916992	22190.724609
3600.150391	21872.802734
3599.383789	22035.867188
3598.617188	22437.710938
3597.849609	21925.093750
3597.083008	22047.228516
3596.315430	21996.568359
3595.547852	21977.328125
3594.780273	22093.115234
3594.012695	22328.166016
3593.245117	21929.060547
3592.477539	22299.015625
3591.708984	22254.636719
3590.941406	22022.021484
3590.172852	22018.480469
3589.404297	21908.298828
3588.635742	22143.109375
3587.867188	22271.238281
3587.098633	22120.314453
3586.330078	22383.187500
3585.560547	22047.388672
3584.791992	22366.587891
3584.022461	22331.662109
3583.252930	21964.707031
3582.483398	22246.181641
3581.713867	22530.697266
3580.944336	21819.482422
3580.174805	21731.453125
3579.404297	22100.419922
3578.634766	22265.855469
3577.864258	22033.863281
3577.093750	22070.990234
3576.323242	22286.394531
3575.552734	22126.441406
3574.782227	22232.324219
3574.010742	22066.175781
3573.240234	22378.343750
3572.468750	22180.970703
3571.698242	22283.650391
3570.926758	22286.316406
3570.155273	22035.945313
3569.383789	22101.115234
3568.611328	22128.791016
3567.839844	22334.431641
3567.067383	22274.646484
3566.295898	22186.787109
3565.523438	22492.187500
3564.750977	22335.671875
3563.978516	22310.240234
3563.206055	22359.683594
3562.433594	22483.960938
3561.660156	22442.925781
3560.887695	22174.296875
3560.114258	22024.214844
3559.341797	22491.320313
3558.568359	22291.373047
3557.794922	22465.392578
3557.020508	22514.740234
3556.247070	22246.357422
3555.473633	22628.960938
3554.699219	22513.222656
3553.925781	22257.419922
3553.151367	22499.755859
3552.376953	22275.160156
3551.602539	22181.333984
3550.828125	22286.666016
3550.052734	22102.652344
3549.278320	22565.650391
3548.502930	22313.234375
3547.728516	22213.255859
3546.953125	22505.025391
3546.177734	22495.189453
3545.402344	22062.687500
3544.626953	22593.605469
3543.850586	22478.125000
3543.075195	22222.894531
3542.298828	22706.941406
3541.523438	22467.281250
3540.747070	22513.347656
3539.970703	22689.779297
3539.194336	22521.625000
3538.417969	22698.000000
3537.640625	22762.611328
3536.864258	22613.140625
3536.086914	22777.003906
3535.309570	22674.097656
3534.533203	22456.492188
3533.755859	22375.371094
3532.977539	22889.451172
3532.200195	22482.851563
3531.422852	22906.880859
3530.644531	22714.195313
3529.867188	22701.250000
3529.088867	22679.013672
3528.310547	22669.173828
3527.532227	22764.611328
3526.753906	22531.855469
3525.975586	22559.185547
3525.196289	22973.369141
3524.417969	22694.273438
3523.638672	22545.208984
3522.859375	22922.072266
3522.080078	22807.041016
3521.300781	23180.646484
3520.521484	22425.585938
3519.742188	23102.087891
3518.962891	22730.554688
3518.182617	22875.240234
3517.402344	23084.765625
3516.623047	22731.947266
3515.842773	22688.136719
3515.062500	22622.718750
3514.281250	22566.585938
3513.500977	22982.847656
3512.720703	22568.587891
3511.939453	22768.664063
3511.158203	22663.166016
3510.376953	22863.160156
3509.596680	22896.501953
3508.814453	22639.894531
3508.033203	23502.845703
3507.251953	23104.382813
3506.469727	22764.623047
3505.688477	22625.333984
3504.906250	22994.613281
3504.124023	22849.167969
3503.341797	22833.167969
3502.559570	22835.658203
3501.777344	22496.265625
3500.994141	23006.923828
3500.211914	23037.091797
3499.428711	23144.212891
3498.646484	22786.519531
3497.863281	22967.505859
3497.080078	22825.345703
3496.295898	22873.976563
3495.512695	22888.753906
3494.729492	23171.095703
3493.945313	22958.267578
3493.162109	22893.083984
3492.377930	23150.695313
3491.593750	22799.660156
3490.809570	22977.304688
3490.025391	22896.794922
3489.240234	23197.246094
3488.456055	22800.353516
3487.670898	22808.970703
3486.886719	22968.042969
3486.101563	23145.484375
3485.316406	22939.167969
3484.531250	23012.207031
3483.745117	23017.710938
3482.959961	22655.037109
3482.174805	22577.771484
3481.388672	23064.880859
3480.602539	23180.771484
3479.816406	22628.201172
3479.030273	23059.884766
3478.244141	22976.480469
3477.458008	23086.177734
3476.671875	23149.876953
3475.884766	22821.402344
3475.098633	23102.609375
3474.311523	22832.437500
3473.524414	22981.875000
3472.737305	22935.314453
3471.950195	23106.115234
3471.162109	23178.916016
3470.375000	22875.285156
3469.586914	22960.337891
3468.799805	22742.496094
3468.011719	23234.357422
3467.223633	22762.705078
3466.435547	23263.578125
3465.647461	23461.617188
3464.858398	23375.308594
3464.070313	22894.765625
3463.281250	23095.822266
3462.493164	22930.175781
3461.704102	22960.089844
3460.915039	23243.503906
3460.125977	23126.771484
3459.335938	22945.957031
3458.546875	23033.851563
3457.757813	22941.628906
3456.967773	23008.130859
3456.177734	23108.177734
3455.387695	23308.869141
3454.597656	23180.052734
3453.807617	23072.626953
3453.017578	22943.888672
3452.226563	22845.681641
3451.436523	22906.023438
3450.645508	22768.228516
3449.854492	22904.750000
3449.063477	23190.527344
3448.272461	22973.542969
3447.481445	23116.054688
3446.690430	22856.513672
3445.898438	22865.015625
3445.107422	23022.697266
3444.315430	22504.552734
3443.523438	23197.904297
3442.731445	23069.406250
3441.939453	23287.802734
3441.147461	23101.531250
3440.355469	22769.324219
3439.562500	23285.687500
3438.770508	23075.179688
3437.977539	22943.783203
3437.184570	23146.787109
3436.391602	22948.558594
3435.598633	23187.957031
3434.804688	23211.570313
3434.011719	23046.839844
3433.217773	23334.701172
3432.424805	23488.855469
3431.630859	23184.492188
3430.836914	23041.119141
3430.042969	23289.335938
3429.249023	23400.910156
3428.454102	23306.117188
3427.660156	23096.070313
3426.865234	23043.822266
3426.071289	23094.705078
3425.276367	23300.218750
3424.481445	22826.537109
3423.686523	23053.246094
3422.891602	22825.253906
3422.095703	23273.105469
3421.300781	23208.763672
3420.504883	23062.648438
3419.708984	23280.046875
3418.913086	23009.800781
3418.117188	23133.271484
3417.321289	23081.109375
3416.525391	23174.257813
3415.728516	23206.847656
3414.932617	23151.671875
3414.135742	23226.609375
3413.338867	23020.197266
3412.541992	23276.601563
3411.745117	23602.472656
3410.948242	23018.156250
3410.151367	22893.531250
3409.353516	23264.644531
3408.556641	23402.939453
3407.758789	23184.640625
3406.960938	23319.880859
3406.163086	23074.478516
3405.365234	23137.208984
3404.567383	23193.878906
3403.768555	23220.337891
3402.970703	23406.777344
3402.171875	23203.810547
3401.373047	23145.757813
3400.574219	23169.189453
3399.775391	23467.132813
3398.976563	23089.343750
3398.177734	23360.060547
3397.377930	23256.798828
3396.579102	23442.986328
3395.779297	23246.298828
3394.979492	23332.972656
3394.179688	23621.511719
3393.379883	23286.296875
3392.580078	23258.451172
3391.780273	23302.898438
3390.979492	23178.691406
3390.178711	23187.005859
3389.378906	23065.867188
3388.578125	23486.556641
3387.777344	23380.455078
3386.976563	23719.714844
3386.174805	23351.871094
3385.374023	23423.312500
3384.572266	23332.326172
3383.771484	23415.773438
3382.969727	23526.253906
3382.167969	23507.437500
3381.366211	23548.738281
3380.564453	23617.070313
3379.761719	23502.099609
3378.959961	23675.560547
3378.157227	23554.607422
3377.354492	23646.917969
3376.552734	23601.074219
3375.750000	23360.101563
3374.946289	23488.417969
3374.143555	23571.673828
3373.340820	23270.804688
3372.537109	23459.076172
3371.733398	23689.285156
3370.930664	23637.482422
3370.126953	23495.732422
3369.323242	23782.789063
3368.518555	23536.134766
3367.714844	23634.257813
3366.911133	23330.763672
3366.106445	23312.027344
3365.301758	23461.066406
3364.497070	23466.277344
3363.692383	23300.771484
3362.887695	23566.523438
3362.083008	23460.935547
3361.278320	23310.476563
3360.472656	23656.908203
3359.666992	23700.982422
3358.862305	23709.134766
3358.056641	23735.234375
3357.250977	23534.000000
3356.444336	23512.269531
3355.638672	23460.642578
3354.833008	23388.103516
3354.026367	23608.527344
3353.219727	23512.076172
3352.414063	23571.044922
3351.607422	23564.261719
3350.799805	23688.919922
3349.993164	23401.363281
3349.186523	23591.705078
3348.378906	23799.900391
3347.572266	23652.773438
3346.764648	24090.722656
3345.957031	23376.564453
3345.149414	23471.269531
3344.341797	23580.861328
3343.533203	23741.125000
3342.725586	23588.181641
3341.916992	23420.375000
3341.109375	23634.253906
3340.300781	23585.734375
3339.492188	23498.482422
3338.683594	23810.583984
3337.874023	23431.324219
3337.065430	23454.363281
3336.255859	23665.046875
3335.447266	23759.515625
3334.637695	23478.769531
3333.828125	23659.574219
3333.018555	23867.109375
3332.208984	23577.550781
3331.399414	23523.166016
3330.588867	23468.800781
3329.778320	23729.777344
3328.968750	23922.259766
3328.158203	23775.664063
3327.347656	23528.023438
3326.537109	23655.041016
3325.726563	23695.816406
3324.915039	23787.103516
3324.104492	23922.929688
3323.292969	23722.994141
3322.481445	23434.009766
3321.669922	23442.117188
3320.858398	23714.505859
3320.046875	23523.638672
3319.235352	23534.693359
3318.422852	23893.009766
3317.611328	23628.013672
3316.798828	23650.914063
3315.986328	23528.439453
3315.173828	23720.417969
3314.361328	23538.656250
3313.548828	23525.970703
3312.735352	23682.277344
3311.922852	23515.429688
3311.109375	23624.265625
3310.295898	23608.609375
3309.482422	23859.609375
3308.668945	23855.767578
3307.855469	23730.488281
3307.041992	23362.416016
3306.227539	23263.904297
3305.414063	23656.857422
3304.599609	23815.845703
3303.785156	23738.021484
3302.970703	23367.283203
3302.156250	23659.373047
3301.341797	23481.037109
3300.526367	23441.763672
3299.711914	23503.044922
3298.896484	23644.134766
3298.081055	23894.554688
3297.265625	23710.410156
3296.450195	23765.695313
3295.634766	23599.359375
3294.818359	23468.525391
3294.002930	23887.134766
3293.186523	23561.378906
3292.371094	23347.933594
3291.554688	23807.691406
3290.738281	23759.578125
3289.921875	23690.820313
3289.104492	23627.986328
3288.288086	23541.568359
3287.470703	23166.080078
3286.654297	23920.369141
3285.836914	23506.601563
3285.019531	23741.648438
3284.202148	23451.861328
3283.383789	23515.878906
3282.566406	23765.542969
3281.748047	23419.904297
3280.930664	23407.292969
3280.112305	23612.666016
3279.293945	23823.863281
3278.475586	23593.281250
3277.657227	23969.291016
3276.838867	23612.173828
3276.019531	23611.314453
3275.201172	23613.396484
3274.381836	23071.138672
3273.562500	23491.054688
3272.743164	23772.587891
3271.923828	23786.404297
3271.104492	23841.380859
3270.284180	23755.220703
3269.464844	23727.876953
3268.644531	23541.833984
3267.824219	23840.714844
3267.003906	23601.826172
3266.183594	23885.912109
3265.363281	23738.142578
3264.542969	23860.595703
3263.721680	23501.468750
3262.900391	23620.984375
3262.080078	23605.437500
3261.258789	23906.853516
3260.437500	23952.884766
3259.616211	23752.457031
3258.793945	23810.230469
3257.972656	23304.867188
3257.150391	23934.519531
3256.329102	23549.507813
3255.506836	23961.984375
3254.684570	23495.023438
3253.862305	23596.736328
3253.039063	23683.767578
3252.216797	23794.205078
3251.394531	23778.654297
3250.571289	23713.322266
3249.748047	23946.683594
3248.924805	23614.919922
3248.101563	23675.515625
3247.278320	23569.263672
3246.455078	24013.187500
3245.630859	23851.324219
3244.807617	23557.871094
3243.983398	23799.763672
3243.159180	23608.767578
3242.334961	23373.970703
3241.510742	23829.189453
3240.686523	24199.492188
3239.861328	23765.982422
3239.037109	23399.816406
3238.211914	23679.439453
3237.386719	23859.654297
3236.561523	23741.902344
3235.736328	23729.316406
3234.911133	23389.726563
3234.084961	23531.917969
3233.259766	23726.601563
3232.433594	23711.105469
3231.607422	23739.378906
3230.781250	23983.527344
3229.955078	23988.414063
3229.128906	23762.900391
3228.302734	23791.144531
3227.475586	23635.707031
3226.649414	23821.371094
3225.822266	23829.189453
3224.995117	23700.044922
3224.167969	23739.929688
3223.340820	23846.800781
3222.513672	23554.605469
3221.685547	23585.753906
3220.858398	23710.068359
3220.030273	23394.744141
3219.202148	23568.529297
3218.374023	23750.990234
3217.545898	23834.457031
3216.717773	23711.330078
3215.889648	23791.865234
3215.060547	23686.236328
3214.231445	23801.644531
3213.403320	23701.859375
3212.574219	23779.435547
3211.745117	23720.378906
3210.915039	23667.150391
3210.085938	23520.960938
3209.256836	23740.865234
3208.426758	23461.093750
3207.596680	23448.597656
3206.766602	23961.683594
3205.936523	23560.072266
3205.106445	23292.119141
3204.276367	23642.449219
3203.446289	23748.908203
3202.615234	23568.093750
3201.784180	23668.728516
3200.953125	23441.576172
3200.122070	23629.197266
3199.291016	23402.123047
3198.459961	23720.146484
3197.628906	23585.884766
3196.796875	23579.183594
3195.964844	23334.875000
3195.133789	23997.468750
3194.301758	23498.257813
3193.469727	23604.527344
3192.636719	23696.283203
3191.804688	23828.542969
3190.972656	23193.621094
3190.139648	23745.603516
3189.306641	23709.941406
3188.473633	23642.462891
3187.640625	23690.724609
3186.807617	23409.220703
3185.974609	23590.539063
3185.140625	23708.181641
3184.307617	23796.875000
3183.473633	23344.984375
3182.639648	23659.140625
3181.805664	23190.080078
3180.971680	23839.312500
3180.137695	23780.582031
3179.302734	23479.248047
3178.468750	23798.902344
3177.633789	23592.947266
3176.798828	23583.367188
3175.963867	23455.445313
3175.128906	23679.658203
3174.293945	23372.857422
3173.458984	23628.744141
3172.623047	23740.318359
3171.787109	23534.597656
3170.952148	23574.058594
3170.116211	23688.466797
3169.280273	23468.441406
3168.443359	23680.826172
3167.607422	23204.388672
3166.770508	23405.222656
3165.934570	23859.507813
3165.097656	23518.650391
3164.260742	23635.814453
3163.423828	23381.486328
3162.586914	23308.619141
3161.750000	23365.308594
3160.912109	23704.033203
3160.075195	23881.500000
3159.237305	23457.582031
3158.399414	23448.044922
3157.561523	23789.410156
3156.723633	23607.275391
3155.885742	23606.341797
3155.046875	23605.408203
3154.208984	23495.248047
3153.370117	23229.931641
3152.531250	23493.416016
3151.692383	23492.498047
3150.853516	23764.470703
3150.014648	23703.195313
3149.174805	23328.935547
3148.335938	23709.904297
3147.496094	23579.769531
3146.656250	23667.812500
3145.816406	23724.257813
3144.976563	23608.527344
3144.136719	23538.736328
3143.296875	23552.148438
3142.456055	23273.029297
3141.616211	23834.160156
3140.775391	23618.158203
3139.934570	23554.150391
3139.093750	23690.787109
3138.252930	23807.318359
3137.411133	23757.634766
3136.570313	24088.966797
3135.728516	23744.240234
3134.886719	23814.865234
3134.044922	23487.472656
3133.203125	23417.837891
3132.361328	23814.789063
3131.519531	23816.669922
3130.677734	23669.753906
3129.834961	24006.390625
3128.992188	23464.740234
3128.149414	23552.476563
3127.306641	23685.935547
3126.463867	23836.505859
3125.621094	23678.291016
3124.777344	23697.333984
3123.934570	23316.289063
3123.090820	24149.708984
3122.247070	23723.001953
3121.403320	23836.283203
3120.559570	23572.550781
3119.715820	23480.226563
3118.872070	23616.332031
3118.027344	23818.044922
3117.182617	23680.060547
3116.338867	23607.751953
3115.494141	23795.101563
3114.648438	23734.207031
3113.803711	23947.142578
3112.958984	23566.847656
3112.113281	23768.335938
3111.268555	23650.466797
3110.422852	23703.656250
3109.577148	23523.134766
3108.731445	23351.220703
3107.885742	23410.128906
3107.039063	23688.355469
3106.193359	23844.023438
3105.346680	23581.041016
3104.500000	23725.285156
3103.653320	23470.947266
3102.806641	23840.013672
3101.959961	23599.966797
3101.113281	23664.445313
3100.265625	23615.105469
3099.418945	23264.277344
3098.571289	23820.777344
3097.723633	23455.810547
3096.875977	23144.976563
3096.028320	23078.705078
3095.180664	23398.976563
3094.332031	23500.339844
3093.484375	23524.957031
3092.635742	23421.734375
3091.787109	23636.652344
3090.938477	23621.476563
3090.089844	23359.283203
3089.240234	23210.728516
3088.391602	23490.822266
3087.541992	23277.019531
3086.693359	23273.261719
3085.843750	23422.703125
3084.994141	23410.412109
3084.144531	23466.189453
3083.293945	23575.828125
3082.444336	23424.589844
3081.593750	23194.025391
3080.744141	23278.144531
3079.893555	23390.572266
3079.042969	23080.789063
3078.192383	23533.164063
3077.341797	23348.083984
3076.490234	23653.003906
3075.639648	23343.375000
3074.788086	23628.378906
3073.936523	23638.714844
3073.084961	23114.142578
3072.233398	23404.701172
3071.381836	23542.384766
3070.529297	23190.638672
3069.677734	23348.109375
3068.825195	23432.003906
3067.972656	23399.943359
3067.120117	23783.462891
3066.267578	23513.925781
3065.415039	23911.431641
3064.562500	24046.023438
3063.708984	24056.265625
3062.855469	24247.285156
3062.002930	24220.773438
3061.149414	24555.716797
3060.295898	24266.593750
3059.441406	24336.068359
3058.587891	24097.875000
3057.734375	24119.380859
3056.879883	24033.660156
3056.025391	23922.578125
3055.170898	23876.404297
3054.316406	23508.748047
3053.461914	23775.640625
3052.607422	23540.621094
3051.751953	23700.306641
3050.896484	23659.839844
3050.041992	23368.595703
3049.186523	23494.419922
3048.331055	23513.160156
3047.474609	23250.242188
3046.619141	23359.128906
3045.763672	23315.935547
3044.907227	23208.007813
3044.050781	23308.402344
3043.194336	23062.611328
3042.337891	23337.449219
3041.481445	23302.730469
3040.625000	23470.550781
3039.767578	23118.019531
3038.911133	23277.376953
3038.053711	23329.845703
3037.196289	23430.083984
3036.338867	22979.414063
3035.481445	23107.777344
3034.623047	23429.966797
3033.765625	23271.671875
3032.907227	23141.515625
3032.048828	23087.226563
3031.191406	23170.539063
3030.332031	22784.986328
3029.473633	23202.347656
3028.615234	23184.566406
3027.756836	23284.642578
3026.897461	23233.183594
3026.038086	23044.289063
3025.178711	23032.150391
3024.319336	23118.164063
3023.459961	22735.916016
3022.600586	22914.457031
3021.740234	23132.181641
3020.880859	23237.736328
3020.020508	23096.683594
3019.160156	22961.279297
3018.299805	23027.593750
3017.439453	23404.755859
3016.578125	22902.542969
3015.717773	22988.431641
3014.856445	22797.166016
3013.996094	22754.296875
3013.134766	22689.054688
3012.273438	23175.019531
3011.412109	23020.210938
3010.549805	23164.730469
3009.688477	22954.041016
3008.826172	22947.533203
3007.963867	22952.210938
3007.102539	23012.789063
3006.239258	23011.863281
3005.376953	23128.296875
3004.514648	23029.568359
3003.652344	22880.587891
3002.789063	22902.025391
3001.925781	23230.626953
3001.062500	23106.814453
3000.199219	22698.298828
2999.335938	22867.679688
2998.472656	22894.677734
2997.608398	23354.152344
2996.745117	23277.843750
2995.880859	22900.310547
2995.016602	22882.662109
2994.152344	23065.787109
2993.288086	22944.960938
2992.423828	23242.302734
2991.558594	22851.142578
2990.693359	23034.150391
2989.829102	23080.576172
2988.963867	23305.271484
2988.098633	22736.093750
2987.233398	22877.226563
2986.367188	22965.412109
2985.501953	23103.675781
2984.635742	23052.621094
2983.769531	23199.175781
2982.904297	23184.292969
2982.038086	23047.001953
2981.170898	23240.771484
2980.304688	23020.078125
2979.438477	22774.429688
2978.571289	23365.732422
2977.704102	22894.935547
2976.836914	22860.658203
2975.969727	22929.212891
2975.102539	22697.666016
2974.235352	23082.923828
2973.367188	22723.654297
2972.500000	22875.500000
2971.631836	22802.382813
2970.763672	22609.906250
2969.895508	22481.337891
2969.027344	22794.091797
2968.158203	22773.755859
2967.290039	22340.029297
2966.420898	22391.894531
2965.552734	22818.175781
2964.683594	22839.441406
2963.814453	22752.566406
2962.944336	22740.568359
2962.075195	22786.781250
2961.206055	22586.330078
2960.335938	22729.531250
2959.465820	22617.806641
2958.595703	22627.998047
2957.725586	22474.781250
2956.855469	22928.044922
2955.985352	22702.843750
2955.114258	22779.447266
2954.243164	22753.619141
2953.373047	22752.705078
2952.501953	23017.406250
2951.630859	22615.320313
2950.758789	22559.107422
2949.887695	22823.710938
2949.016602	22703.884766
2948.144531	22597.919922
2947.272461	23285.302734
2946.400391	22416.492188
2945.528320	22498.525391
2944.656250	22646.837891
2943.783203	22764.718750
2942.911133	22783.128906
2942.038086	23047.304688
2941.165039	22844.779297
2940.291992	22882.492188
2939.418945	23080.277344
2938.545898	23371.828125
2937.672852	23136.269531
2936.798828	23011.136719
2935.925781	23330.138672
2935.051758	23307.056641
2934.177734	23752.750000
2933.303711	23365.679688
2932.428711	23122.076172
2931.554688	23512.458984
2930.679688	23726.351563
2929.805664	23458.007813
2928.930664	23465.228516
2928.055664	23026.246094
2927.180664	23146.443359
2926.304688	22980.242188
2925.429688	22692.962891
2924.553711	23217.779297
2923.678711	22721.392578
2922.802734	23056.167969
2921.926758	22846.093750
2921.050781	22858.900391
2920.174805	22349.138672
2919.297852	22538.011719
2918.420898	22465.626953
2917.544922	22409.757813
2916.667969	22587.533203
2915.791016	22204.636719
2914.914063	22374.144531
2914.036133	22362.279297
2913.159180	22556.425781
2912.281250	22574.742188
2911.404297	22590.308594
2910.526367	22152.871094
2909.648438	22377.117188
2908.769531	22266.457031
2907.891602	22375.359375
2907.013672	22401.916016
2906.134766	22392.800781
2905.255859	22191.695313
2904.376953	22075.666016
2903.498047	22288.697266
2902.619141	22095.929688
2901.740234	22303.406250
2900.860352	22168.248047
2899.981445	22304.402344
2899.101563	22235.037109
2898.221680	22119.128906
2897.341797	22236.050781
2896.461914	22331.029297
2895.581055	21930.417969
2894.701172	21820.105469
2893.820313	22186.066406
2892.939453	22494.437500
2892.058594	22572.876953
2891.177734	22290.183594
2890.296875	22316.658203
2889.416016	22334.921875
2888.534180	22347.708984
2887.652344	22229.265625
2886.771484	22116.326172
2885.889648	22019.820313
2885.006836	21863.228516
2884.125000	22400.646484
2883.243164	22257.701172
2882.360352	22532.681641
2881.477539	22053.873047
2880.595703	22085.792969
2879.712891	22139.542969
2878.829102	22179.626953
2877.946289	21935.878906
2877.063477	21954.152344
2876.179688	21906.945313
2875.295898	22353.464844
2874.413086	21938.027344
2873.529297	22193.519531
2872.644531	21939.095703
2871.760742	22197.230469
2870.876953	22122.769531
2869.992188	22023.806641
2869.107422	21886.732422
2868.222656	22207.361328
2867.337891	22113.878906
2866.453125	21761.714844
2865.568359	22000.519531
2864.682617	22054.125000
2863.797852	21781.076172
2862.912109	21750.330078
2862.026367	21833.878906
2861.140625	22290.126953
2860.253906	21785.998047
2859.368164	22005.486328
2858.482422	22010.078125
2857.595703	21734.623047
2856.708984	21997.505859
2855.822266	22363.585938
2854.935547	21756.664063
2854.048828	21592.828125
2853.161133	21950.644531
2852.274414	21759.666016
2851.386719	21764.285156
2850.499023	21701.019531
2849.611328	21871.253906
2848.723633	21642.408203
2847.835938	21744.746094
2846.947266	21939.312500
2846.059570	22049.707031
2845.170898	21883.369141
2844.282227	21665.552734
2843.393555	21941.357422
2842.504883	21867.302734
2841.616211	21985.750000
2840.726563	21724.687500
2839.837891	21989.460938
2838.948242	21796.220703
2838.058594	21743.919922
2837.168945	21667.257813
2836.279297	21563.537109
2835.388672	21587.119141
2834.499023	21881.435547
2833.608398	21563.875000
2832.717773	21582.029297
2831.827148	21518.996094
2830.936523	21677.845703
2830.045898	21736.550781
2829.155273	21681.632813
2828.263672	21651.072266
2827.372070	21463.695313
2826.480469	21595.386719
2825.588867	21402.671875
2824.697266	21558.652344
2823.805664	21420.048828
2822.914063	21524.642578
2822.021484	21712.941406
2821.128906	21679.710938
2820.236328	21570.876953
2819.343750	21367.580078
2818.451172	21277.728516
2817.558594	21603.566406
2816.665039	21365.277344
2815.772461	21340.226563
2814.878906	21611.937500
2813.985352	21249.683594
2813.091797	21157.238281
2812.198242	21485.470703
2811.304688	21568.257813
2810.410156	21589.019531
2809.515625	21254.011719
2808.622070	21258.646484
2807.727539	21419.548828
2806.833008	21313.707031
2805.937500	21536.494141
2805.042969	21247.544922
2804.147461	21168.707031
2803.252930	21281.031250
2802.357422	21387.935547
2801.461914	21521.716797
2800.566406	21391.757813
2799.669922	21113.869141
2798.774414	21304.117188
2797.877930	21203.837891
2796.982422	21273.001953
2796.085938	21417.421875
2795.189453	21239.214844
2794.291992	21152.447266
2793.395508	21302.189453
2792.499023	21371.277344
2791.601563	21271.097656
2790.704102	21286.447266
2789.806641	20960.724609
2788.909180	21088.892578
2788.011719	21219.703125
2787.114258	21237.732422
2786.215820	21296.013672
2785.317383	21198.638672
2784.419922	20910.804688
2783.521484	21274.914063
2782.622070	21156.130859
2781.723633	20991.798828
2780.825195	21098.318359
2779.925781	21135.105469
2779.026367	21142.394531
2778.127930	21047.845703
2777.228516	21170.363281
2776.328125	21322.308594
2775.428711	21048.308594
2774.529297	21433.222656
2773.628906	20859.388672
2772.728516	21343.267578
2771.828125	20871.353516
2770.927734	21226.603516
2770.027344	20920.771484
2769.126953	20949.480469
2768.225586	20986.205078
2767.324219	20752.775391
2766.423828	21016.828125
2765.522461	20925.179688
2764.621094	21071.490234
2763.718750	20926.402344
2762.817383	21053.955078
2761.915039	20839.443359
2761.013672	20892.162109
2760.111328	20960.890625
2759.208984	20978.853516
2758.305664	20825.906250
2757.403320	21116.212891
2756.500977	21155.494141
2755.597656	20943.873047
2754.694336	21153.958984
2753.791016	20833.011719
2752.887695	21120.408203
2751.984375	21068.966797
2751.081055	20806.857422
2750.176758	21059.455078
2749.272461	20930.732422
2748.369141	20906.007813
2747.464844	20958.578125
2746.560547	20859.244141
2745.655273	21159.582031
2744.750977	20644.687500
2743.845703	20806.464844
2742.941406	21021.447266
2742.036133	20882.242188
2741.130859	20937.414063
2740.224609	20819.560547
2739.319336	20770.937500
2738.414063	20796.830078
2737.507813	20931.791016
2736.601563	20720.914063
2735.695313	20613.826172
2734.789063	20629.089844
2733.882813	20904.894531
2732.976563	20906.812500
2732.069336	20948.597656
2731.162109	20828.269531
2730.255859	20569.820313
2729.348633	20781.652344
2728.440430	20847.332031
2727.533203	20679.294922
2726.625977	20914.900391
2725.717773	20614.167969
2724.809570	20860.324219
2723.901367	20575.621094
2722.993164	20795.167969
2722.084961	21065.048828
2721.176758	20764.533203
2720.267578	20721.375000
2719.359375	20776.345703
2718.450195	20733.197266
2717.541016	20769.589844
2716.631836	20734.408203
2715.722656	20842.337891
2714.812500	20746.214844
2713.903320	20843.509766
2712.993164	20252.103516
2712.083008	21035.353516
2711.172852	20597.683594
2710.262695	20755.828125
2709.352539	20805.392578
2708.441406	20709.380859
2707.531250	20544.599609
2706.620117	20586.234375
2705.708984	20688.699219
2704.797852	20619.212891
2703.886719	20531.238281
2702.974609	20363.972656
2702.063477	20780.986328
2701.151367	20825.183594
2700.239258	20523.171875
2699.327148	20617.597656
2698.415039	20593.109375
2697.502930	20626.740234
2696.589844	20496.619141
2695.677734	20688.685547
2694.764648	20511.072266
2693.851563	20336.156250
2692.938477	20525.513672
2692.025391	20540.646484
2691.111328	20616.458984
2690.198242	20417.894531
2689.284180	20440.949219
2688.370117	20427.074219
2687.456055	20397.384766
2686.541992	20077.716797
2685.627930	20709.683594
2684.713867	20337.359375
2683.798828	20476.337891
2682.883789	20488.814453
2681.968750	20193.095703
2681.053711	20505.851563
2680.138672	20678.943359
2679.223633	20430.724609
2678.307617	20208.912109
2677.392578	20453.029297
2676.476563	20139.179688
2675.560547	20377.964844
2674.644531	20361.494141
2673.728516	20142.500000
2672.811523	20157.630859
2671.895508	20291.080078
2670.978516	20056.427734
2670.061523	20415.904297
2669.144531	20402.068359
2668.227539	20540.642578
2667.310547	20371.783203
2666.392578	20399.990234
2665.475586	20005.333984
2664.557617	20128.125000
2663.639648	20334.892578
2662.721680	20373.585938
2661.803711	20157.667969
2660.884766	20233.115234
2659.966797	20494.830078
2659.047852	20402.298828
2658.128906	20294.056641
2657.209961	20086.193359
2656.291016	20384.468750
2655.372070	20402.125000
2654.452148	20079.007813
2653.532227	19973.525391
2652.613281	20080.332031
2651.693359	20236.882813
2650.773438	20199.533203
2649.852539	20426.728516
2648.932617	20172.005859
2648.012695	20108.500000
2647.091797	20291.095703
2646.170898	20115.039063
2645.250000	20376.083984
2644.329102	20019.525391
2643.408203	20068.589844
2642.486328	20230.113281
2641.565430	20323.583984
2640.643555	20150.306641
2639.721680	19903.880859
2638.799805	20122.832031
2637.877930	19900.011719
2636.955078	19956.875000
2636.033203	19917.044922
2635.110352	20010.457031
2634.187500	19907.947266
2633.264648	19920.373047
2632.341797	20047.681641
2631.418945	20094.017578
2630.495117	20166.439453
2629.572266	19779.517578
2628.648438	20303.384766
2627.724609	20250.507813
2626.800781	20012.443359
2625.876953	19897.037109
2624.952148	19779.058594
2624.028320	20023.523438
2623.103516	19704.837891
2622.178711	20248.966797
2621.253906	19935.558594
2620.329102	19572.748047
2619.404297	19835.279297
2618.478516	19931.025391
2617.553711	19813.191406
2616.627930	19755.283203
2615.702148	19765.080078
2614.776367	19946.671875
2613.850586	19972.048828
2612.923828	20106.708984
2611.998047	19962.939453
2611.071289	19774.994141
2610.144531	19868.003906
2609.217773	19846.562500
2608.291016	19804.328125
2607.364258	19819.298828
2606.436523	19519.763672
2605.508789	19802.443359
2604.582031	19591.349609
2603.654297	19437.478516
2602.726563	19392.751953
2601.797852	19890.822266
2600.870117	19716.201172
2599.941406	19635.101563
2599.013672	19995.310547
2598.084961	19678.013672
2597.156250	19643.666016
2596.227539	19658.625000
2595.297852	19530.904297
2594.369141	19219.074219
2593.439453	19278.177734
2592.509766	19477.275391
2591.580078	19953.693359
2590.650391	19543.500000
2589.720703	19682.849609
2588.791016	19793.650391
2587.860352	19637.570313
2586.929688	19626.597656
2585.999023	19721.812500
2585.068359	19550.283203
2584.137695	19824.121094
2583.207031	19264.339844
2582.275391	19556.250000
2581.344727	19586.701172
2580.413086	19485.189453
2579.481445	19440.621094
2578.549805	19440.037109
2577.618164	19674.785156
2576.685547	19751.730469
2575.752930	19324.533203
2574.821289	19688.421875
2573.888672	19447.449219
2572.956055	19705.255859
2572.023438	19552.197266
2571.089844	19399.187500
2570.157227	19279.800781
2569.223633	19480.656250
2568.290039	18968.853516
2567.356445	19345.230469
2566.422852	19316.263672
2565.489258	19310.531250
2564.554688	19480.251953
2563.621094	19381.625000
2562.686523	19272.708984
2561.751953	18988.464844
2560.817383	19454.650391
2559.882813	19214.294922
2558.947266	19162.185547
2558.012695	19244.107422
2557.077148	19374.960938
2556.141602	19114.160156
2555.206055	19466.523438
2554.270508	19262.455078
2553.333984	19364.892578
2552.398438	19269.042969
2551.461914	19114.015625
2550.525391	19072.289063
2549.589844	18853.007813
2548.652344	19166.412109
2547.715820	19294.486328
2546.779297	18596.849609
2545.841797	18941.001953
2544.904297	18917.339844
2543.966797	19564.693359
2543.029297	19250.470703
2542.091797	19049.431641
2541.154297	19516.570313
2540.215820	19063.767578
2539.278320	19266.162109
2538.339844	18875.187500
2537.401367	19270.144531
2536.462891	19202.808594
2535.523438	19191.972656
2534.584961	18757.628906
2533.645508	19142.080078
2532.706055	19169.744141
2531.766602	19466.775391
2530.827148	19201.960938
2529.887695	19314.234375
2528.948242	18975.169922
2528.007813	18754.148438
2527.067383	19043.310547
2526.126953	19004.320313
2525.186523	18921.777344
2524.246094	19074.976563
2523.305664	19079.546875
2522.364258	18676.871094
2521.423828	19137.337891
2520.482422	19292.960938
2519.541016	19102.927734
2518.599609	19191.953125
2517.657227	19122.279297
2516.715820	19009.128906
2515.773438	18985.558594
2514.831055	18990.130859
2513.889648	19045.851563
2512.946289	18971.142578
2512.003906	18955.259766
2511.061523	18959.832031
2510.118164	18941.400391
2509.175781	18905.083984
2508.232422	18899.441406
2507.289063	19141.595703
2506.344727	18977.554688
2505.401367	19122.572266
2504.458008	18991.781250
2503.513672	19231.207031
2502.569336	18962.603516
2501.625000	19051.380859
2500.680664	18915.580078
2499.736328	18935.451172
2498.791016	18942.560547
2497.846680	18962.417969
2496.901367	18887.919922
2495.956055	18966.419922
2495.010742	19256.476563
2494.064453	18710.443359
2493.119141	19053.960938
2492.172852	19211.365234
2491.227539	19254.082031
2490.281250	18609.066406
2489.334961	18952.373047
2488.388672	18712.474609
2487.441406	18706.869141
2486.495117	18853.992188
2485.547852	18721.115234
2484.600586	18720.599609
2483.653320	18918.529297
2482.706055	18984.119141
2481.758789	18833.501953
2480.810547	18751.591797
2479.863281	18791.748047
2478.915039	18966.623047
2477.966797	18752.562500
2477.018555	18785.076172
2476.070313	18637.175781
2475.121094	18918.658203
2474.172852	18862.224609
2473.223633	18734.699219
2472.274414	18757.027344
2471.325195	18992.605469
2470.375977	18677.281250
2469.425781	18334.142578
2468.476563	18891.939453
2467.526367	18711.251953
2466.576172	18751.316406
2465.625977	18849.701172
2464.675781	18839.009766
2463.725586	18460.681641
2462.774414	18586.949219
2461.824219	18776.541016
2460.873047	18707.580078
2459.921875	18658.912109
2458.970703	18638.126953
2458.018555	18779.457031
2457.067383	18730.800781
2456.115234	18636.578125
2455.164063	18610.744141
2454.211914	18549.480469
2453.259766	18799.535156
2452.306641	18543.412109
2451.354492	18682.062500
2450.401367	18180.662109
2449.449219	18883.347656
2448.496094	18781.634766
2447.542969	18492.849609
2446.588867	18611.167969
2445.635742	18681.423828
2444.682617	18678.367188
2443.728516	18768.800781
2442.774414	18644.464844
2441.820313	18570.687500
2440.866211	18476.730469
2439.912109	18837.322266
2438.957031	18624.689453
2438.001953	18389.408203
2437.047852	18419.208984
2436.092773	18305.162109
2435.137695	18562.041016
2434.181641	18584.228516
2433.226563	18495.431641
2432.270508	18204.917969
2431.315430	18249.845703
2430.359375	18511.560547
2429.403320	18543.818359
2428.446289	18407.214844
2427.490234	18192.542969
2426.533203	18517.078125
2425.577148	18156.361328
2424.620117	18344.794922
2423.663086	18321.646484
2422.705078	18278.365234
2421.748047	18189.785156
2420.791016	18330.267578
2419.833008	18812.939453
2418.875000	18452.583984
2417.916992	18283.531250
2416.958984	18086.867188
2416.000977	18252.396484
2415.041992	18342.439453
2414.083008	18502.843750
2413.125000	18301.242188
2412.166016	18313.324219
2411.207031	18106.794922
2410.248047	18453.042969
2409.287109	18402.292969
2408.328125	18120.503906
2407.369141	17984.447266
2406.408203	18187.376953
2405.449219	18043.824219
2404.488281	18216.558594
2403.527344	18371.669922
2402.568359	18338.552734
2401.607422	18358.125000
2400.646484	18330.037109
2399.685547	18342.080078
2398.724609	18045.710938
2397.761719	17980.080078
2396.800781	18302.988281
2395.839844	18500.482422
2394.876953	18266.923828
2393.916016	18076.029297
2392.953125	18238.394531
2391.992188	18157.765625
2391.029297	18500.357422
2390.066406	18399.681641
2389.103516	18331.582031
2388.140625	18180.908203
2387.177734	17910.164063
2386.214844	18149.929688
2385.251953	18059.396484
2384.287109	18349.082031
2383.324219	18383.587891
2382.359375	18050.519531
2381.396484	18342.562500
2380.431641	18219.576172
2379.466797	18129.117188
2378.503906	18271.076172
2377.539063	18023.240234
2376.574219	18372.498047
2375.609375	18144.707031
2374.644531	18206.660156
2373.677734	18336.001953
2372.712891	18140.779297
2371.748047	18569.597656
2370.781250	18321.994141
2369.816406	18199.226563
2368.849609	18061.529297
2367.882813	18312.984375
2366.917969	17920.939453
2365.951172	18301.994141
2364.984375	17927.527344
2364.017578	18288.513672
2363.050781	18405.142578
2362.082031	18088.154297
2361.115234	18015.429688
2360.148438	18226.701172
2359.179688	18398.054688
2358.212891	18297.919922
2357.244141	18080.798828
2356.277344	17955.853516
2355.308594	17818.503906
2354.339844	17810.605469
2353.371094	18267.992188
2352.402344	17986.369141
2351.433594	17913.773438
2350.464844	17923.269531
2349.496094	18248.548828
2348.525391	17788.111328
2347.556641	18386.734375
2346.585938	18097.908203
2345.617188	18221.669922
2344.646484	17766.505859
2343.675781	17937.474609
2342.707031	17825.251953
2341.736328	17847.160156
2340.765625	18003.132813
2339.794922	18144.162109
2338.824219	18019.564453
2337.851563	17904.935547
2336.880859	17847.410156
2335.910156	17899.058594
2334.937500	18057.349609
2333.966797	17846.066406
2332.994141	17788.585938
2332.021484	17998.876953
2331.048828	18018.232422
2330.078125	17913.662109
2329.105469	17799.212891
2328.132813	17766.562500
2327.158203	17862.732422
2326.185547	17827.601563
2325.212891	18032.689453
2324.240234	17645.958984
2323.265625	18081.230469
2322.292969	17749.072266
2321.318359	18008.478516
2320.343750	17815.000000
2319.371094	17859.080078
2318.396484	17621.166016
2317.421875	17830.958984
2316.447266	17635.162109
2315.472656	17919.050781
2314.496094	17661.505859
2313.521484	17577.048828
2312.546875	17870.689453
2311.570313	17600.923828
2310.595703	17805.535156
2309.619141	17777.912109
2308.644531	17550.275391
2307.667969	18021.447266
2306.691406	17680.285156
2305.714844	17623.082031
2304.738281	17726.302734
2303.761719	17683.914063
2302.785156	17873.435547
2301.808594	17650.972656
2300.830078	17524.763672
2299.853516	17573.667969
2298.875000	17790.199219
2297.898438	17562.964844
2296.919922	17463.960938
2295.941406	17820.861328
2294.962891	17689.818359
2293.986328	17472.599609
2293.007813	17679.080078
2292.029297	17750.052734
2291.048828	17252.246094
2290.070313	17616.210938
2289.091797	17342.570313
2288.111328	17489.837891
2287.132813	17686.265625
2286.152344	17336.482422
2285.173828	17414.804688
2284.193359	17529.990234
2283.212891	17748.412109
2282.232422	17856.128906
2281.251953	17715.541016
2280.271484	17496.351563
2279.291016	17370.611328
2278.310547	17524.998047
2277.330078	17411.576172
2276.347656	17730.460938
2275.367188	17543.371094
2274.384766	17444.732422
2273.402344	17547.423828
2272.421875	17429.179688
2271.439453	17507.298828
2270.457031	17394.005859
2269.474609	17653.644531
2268.492188	17832.253906
2267.509766	17270.164063
2266.527344	17507.625000
2265.542969	17700.878906
2264.560547	17553.345703
2263.576172	17673.001953
2262.593750	17638.240234
2261.609375	17547.138672
2260.626953	17529.556641
2259.642578	17487.486328
2258.658203	17633.988281
2257.673828	17457.251953
2256.689453	17358.908203
2255.705078	17431.929688
2254.720703	17448.640625
2253.734375	17458.003906
2252.750000	17689.988281
2251.763672	17415.572266
2250.779297	17486.076172
2249.792969	17436.742188
2248.808594	17424.093750
2247.822266	17482.337891
2246.835938	17393.923828
2245.849609	17146.703125
2244.863281	17605.644531
2243.876953	17243.658203
2242.890625	17245.707031
2241.902344	17743.478516
2240.916016	17213.175781
2239.927734	17488.638672
2238.941406	17266.091797
2237.953125	17524.371094
2236.964844	17214.050781
2235.978516	17503.966797
2234.990234	17344.980469
2234.001953	17461.626953
2233.013672	17488.013672
2232.025391	17146.257813
2231.035156	17389.630859
2230.046875	17135.740234
2229.058594	17110.990234
2228.068359	17461.447266
2227.080078	17066.382813
2226.089844	17321.744141
2225.099609	17406.558594
2224.111328	17323.345703
2223.121094	17135.484375
2222.130859	17249.494141
2221.140625	17292.892578
2220.150391	17453.066406
2219.158203	17034.191406
2218.167969	17578.667969
2217.177734	17094.246094
2216.185547	17397.808594
2215.195313	17229.626953
2214.203125	17255.958984
2213.210938	17260.408203
2212.220703	17157.939453
2211.228516	17449.089844
2210.236328	17152.289063
2209.244141	17457.916016
2208.251953	17377.333984
2207.257813	17478.875000
2206.265625	17107.007813
2205.273438	17249.820313
2204.279297	17293.087891
2203.287109	17166.496094
2202.292969	17238.873047
2201.298828	17073.521484
2200.306641	17335.052734
2199.312500	17193.986328
2198.318359	17147.515625
2197.324219	16878.054688
2196.330078	17110.361328
2195.333984	17323.203125
2194.339844	17056.267578
2193.345703	17038.923828
2192.349609	17128.152344
2191.355469	17159.232422
2190.359375	17023.242188
2189.363281	17153.580078
2188.367188	17124.128906
2187.373047	17268.925781
2186.376953	17246.724609
2185.380859	17021.318359
2184.382813	17110.427734
2183.386719	17051.984375
2182.390625	17051.593750
2181.392578	16840.871094
2180.396484	16879.187500
2179.398438	16985.162109
2178.402344	17074.185547
2177.404297	16895.003906
2176.406250	16967.103516
2175.408203	17060.914063
2174.410156	17089.494141
2173.412109	17089.091797
2172.414063	17006.613281
2171.416016	16851.751953
2170.417969	17032.378906
2169.417969	16911.343750
2168.419922	16838.595703
2167.419922	16753.810547
2166.419922	17158.611328
2165.421875	16914.662109
2164.421875	16948.035156
2163.421875	16906.673828
2162.421875	16672.525391
2161.421875	16734.835938
2160.421875	16891.083984
2159.419922	16864.210938
2158.419922	17152.851563
2157.419922	16892.363281
2156.417969	17055.703125
2155.417969	17024.003906
2154.416016	17141.539063
2153.414063	16816.248047
2152.412109	17008.365234
2151.410156	16923.767578
2150.408203	17248.089844
2149.406250	16944.638672
2148.404297	16756.699219
2147.402344	16809.228516
2146.400391	16955.484375
2145.396484	16993.542969
2144.394531	16781.689453
2143.390625	16855.800781
2142.386719	17172.496094
2141.384766	17025.562500
2140.380859	16852.261719
2139.376953	17051.156250
2138.373047	17000.333984
2137.369141	16896.724609
2136.363281	16881.937500
2135.359375	16953.531250
2134.355469	17017.902344
2133.349609	16890.371094
2132.345703	16791.658203
2131.339844	16925.558594
2130.333984	16865.228516
2129.330078	17027.833984
2128.324219	17001.058594
2127.318359	16868.861328
2126.312500	16854.097656
2125.306641	16810.595703
2124.298828	16798.240234
2123.292969	16836.175781
2122.287109	16799.878906
2121.279297	16921.580078
2120.273438	16890.066406
2119.265625	16944.710938
2118.257813	16896.453125
2117.251953	16915.193359
2116.244141	16974.587891
2115.236328	16907.216797
2114.228516	17179.392578
2113.218750	16841.869141
2112.210938	16867.771484
2111.203125	16728.765625
2110.193359	16699.720703
2109.185547	16699.351563
2108.175781	16925.902344
2107.167969	16679.507813
2106.158203	16972.845703
2105.148438	16702.648438
2104.138672	16599.632813
2103.128906	16792.597656
2102.119141	16634.716797
2101.109375	16751.263672
2100.099609	16836.759766
2099.087891	16800.585938
2098.078125	16568.880859
2097.066406	16630.519531
2096.056641	16623.003906
2095.044922	16708.449219
2094.033203	16789.097656
2093.021484	16700.544922
2092.011719	16771.638672
2091.000000	16659.298828
2089.986328	16482.693359
2088.974609	16722.847656
2087.962891	16470.103516
2086.951172	16526.892578
2085.937500	16631.259766
2084.925781	16469.080078
2083.912109	16635.279297
2082.898438	16406.544922
2081.884766	16644.052734
2080.871094	16524.779297
2079.859375	16464.986328
2078.843750	16607.275391
2077.830078	16314.556641
2076.816406	16459.199219
2075.802734	16444.597656
2074.787109	16441.880859
2073.773438	16306.147461
2072.757813	16189.458984
2071.744141	16573.822266
2070.728516	16431.009766
2069.712891	16333.346680
2068.697266	16496.777344
2067.681641	16560.490234
2066.666016	16379.814453
2065.650391	16455.386719
2064.634766	16466.896484
2063.617188	16257.867188
2062.601563	16433.000000
2061.583984	16285.677734
2060.568359	16344.609375
2059.550781	16612.058594
2058.533203	16519.275391
2057.515625	16452.582031
2056.498047	16077.991211
2055.480469	16413.984375
2054.462891	16401.798828
2053.445313	16164.711914
2052.427734	16427.144531
2051.408203	16493.060547
2050.390625	16478.500000
2049.371094	16277.042969
2048.353516	16354.776367
2047.333984	16449.039063
2046.314453	16399.023438
2045.294922	16185.888672
2044.275391	16284.858398
2043.255859	16298.708984
2042.236328	16560.679688
2041.216797	16354.746094
2040.195313	16366.213867
2039.175781	16446.173828
2038.156250	16299.397461
2037.134766	16499.759766
2036.113281	16442.732422
2035.091797	16378.640625
2034.072266	16390.089844
2033.050781	16618.617188
2032.029297	16226.598633
2031.007813	16240.424805
2029.984375	15942.933594
2028.962891	16437.839844
2027.941406	16175.778320
2026.917969	16404.111328
2025.896484	16424.964844
2024.873047	16490.582031
2023.849609	16443.087891
2022.828125	16511.035156
2021.804688	16301.036133
2020.781250	16413.726563
2019.757813	16330.956055
2018.732422	16318.835938
2017.708984	16266.705078
2016.685547	16489.933594
2015.662109	16513.085938
2014.636719	16119.824219
2013.611328	16467.628906
2012.587891	16377.885742
2011.562500	16525.664063
2010.537109	16273.719727
2009.511719	16254.569336
2008.486328	16254.227539
2007.460938	16162.241211
2006.435547	16316.977539
2005.410156	16344.813477
2004.382813	16224.671875
2003.357422	16313.567383
2002.330078	16447.042969
2001.304688	16233.042969
2000.277344	16314.849609
1999.250000	16143.181641
1998.222656	16276.595703
1997.195313	16292.666016
1996.167969	16447.119141
1995.140625	16106.689453
1994.113281	16082.916992
1993.083984	16164.650391
1992.056641	16234.636719
1991.029297	16206.166016
1990.000000	16395.626953
1988.970703	16254.680664
1987.943359	16059.905273
1986.914063	15926.087891
1985.884766	16248.942383
1984.855469	16241.566406
1983.826172	15831.556641
1982.794922	16313.419922
1981.765625	16217.110352
1980.736328	15921.954102
1979.705078	16218.752930
1978.675781	16307.283203
1977.644531	15974.840820
1976.613281	15993.235352
1975.583984	16086.434570
1974.552734	16289.459961
1973.521484	16137.189453
1972.490234	16090.117188
1971.457031	15963.627930
1970.425781	16140.842773
1969.394531	15927.972656
1968.361328	15911.321289
1967.330078	16062.773438
1966.296875	15971.405273
1965.265625	15973.424805
1964.232422	16017.446289
1963.199219	16052.120117
1962.166016	15921.155273
1961.132813	15913.849609
1960.099609	15948.522461
1959.066406	15957.535156
1958.031250	15789.371094
1956.998047	15775.097656
1955.962891	16098.744141
1954.929688	15979.570313
1953.894531	16032.831055
1952.861328	15687.765625
1951.826172	15659.544922
1950.791016	15517.235352
1949.755859	15952.349609
1948.720703	15945.046875
1947.685547	15919.127930
1946.648438	15867.620117
1945.613281	15930.130859
1944.576172	15813.503906
1943.541016	15343.391602
1942.503906	15936.154297
1941.468750	15756.806641
1940.431641	15693.750000
1939.394531	15923.572266
1938.357422	15674.597656
1937.320313	15530.262695
1936.283203	15671.717773
1935.244141	15699.311523
1934.207031	15736.185547
1933.169922	15851.993164
1932.130859	15642.741211
1931.093750	15445.165039
1930.054688	15681.643555
1929.015625	15607.107422
1927.976563	15490.833984
1926.937500	15506.819336
1925.898438	15701.381836
1924.859375	15770.659180
1923.820313	15723.989258
1922.781250	15709.788086
1921.740234	15396.604492
1920.701172	15546.992188
1919.660156	15725.131836
1918.621094	15592.792969
1917.580078	15715.276367
1916.539063	15534.350586
1915.498047	15765.626953
1914.457031	15438.904297
1913.416016	15570.588867
1912.375000	15764.714844
1911.333984	15586.241211
1910.291016	15567.458008
1909.250000	15578.750000
1908.207031	15527.594727
1907.166016	15612.883789
1906.123047	15707.391602
1905.080078	15769.505859
1904.037109	15475.676758
1902.994141	15574.780273
1901.951172	15793.992188
1900.908203	15465.653320
1899.865234	15694.048828
1898.820313	15478.988281
1897.777344	15568.770508
1896.734375	15679.299805
1895.689453	15709.007813
1894.644531	15494.085938
1893.599609	15807.616211
1892.556641	15355.131836
1891.511719	15592.463867
1890.466797	15437.663086
1889.419922	15654.148438
1888.375000	15810.621094
1887.330078	15508.336914
1886.285156	15517.282227
1885.238281	15574.613281
1884.191406	15475.260742
1883.146484	15375.940430
1882.099609	15479.327148
1881.052734	15619.524414
1880.005859	15621.531250
1878.958984	15416.359375
1877.912109	15505.860352
1876.865234	15418.136719
1875.818359	15404.068359
1874.769531	15700.565430
1873.722656	15260.941406
1872.673828	15571.160156
1871.626953	15384.625977
1870.578125	15359.078125
1869.529297	15616.257813
1868.480469	15445.895508
1867.431641	15225.038086
1866.382813	15233.992188
1865.333984	15224.566406
1864.283203	15513.705078
1863.234375	15451.421875
1862.185547	15327.170898
1861.134766	15191.483398
1860.083984	15271.579102
1859.035156	15441.141602
1857.984375	15408.746094
1856.933594	15174.493164
1855.882813	15238.481445
1854.832031	15222.186523
1853.781250	15375.564453
1852.730469	15139.177734
1851.677734	15469.004883
1850.626953	15452.680664
1849.574219	15225.562500
1848.523438	15156.592773
1847.470703	15389.993164
1846.417969	15291.246094
1845.365234	14970.424805
1844.312500	15247.236328
1843.259766	15196.628906
1842.207031	15116.286133
1841.154297	15148.092773
1840.099609	15189.040039
1839.046875	15239.123047
1837.992188	15213.714844
1836.939453	15304.937500
1835.884766	15272.666992
1834.830078	15212.974609
1833.777344	15082.450195
1832.722656	15196.482422
1831.667969	15308.192383
1830.611328	15221.119141
1829.556641	15029.008789
1828.501953	15072.178711
1827.445313	15268.314453
1826.390625	15133.363281
1825.333984	15135.407227
1824.279297	15048.447266
1823.222656	15207.945313
1822.166016	15016.057617
1821.109375	14815.108398
1820.052734	14769.308594
1818.996094	14858.057617
1817.939453	15019.732422
1816.880859	15149.440430
1815.824219	15167.427734
1814.765625	14911.962891
1813.708984	14886.694336
1812.650391	14961.665039
1811.591797	14888.566406
1810.533203	14849.650391
1809.476563	14860.836914
1808.417969	14849.253906
1807.357422	14894.577148
1806.298828	14912.575195
1805.240234	15155.823242
1804.179688	14675.562500
1803.121094	15093.908203
1802.060547	14807.121094
1801.001953	14856.949219
1799.941406	14924.949219
1798.880859	15077.027344
1797.820313	15035.878906
1796.759766	14685.713867
1795.699219	14708.255859
1794.638672	14960.213867
1793.576172	14944.092773
1792.515625	14939.330078
1791.455078	14941.379883
1790.392578	14968.398438
1789.330078	14940.936523
1788.269531	14745.559570
1787.207031	14659.152344
1786.144531	14906.241211
1785.082031	15067.059570
1784.019531	14840.041016
1782.955078	14823.961914
1781.892578	14832.824219
1780.830078	15043.410156
1779.765625	14580.858398
1778.703125	14938.694336
1777.638672	15137.829102
1776.574219	14788.746094
1775.509766	14890.455078
1774.445313	14808.719727
1773.380859	14776.817383
1772.316406	14860.368164
1771.251953	15047.997070
1770.187500	14803.364258
1769.121094	14825.781250
1768.056641	14755.445313
1766.990234	14780.123047
1765.925781	14890.722656
1764.859375	14813.626953
1763.792969	14903.836914
1762.726563	14878.748047
1761.660156	14810.730469
1760.593750	14717.881836
1759.527344	14774.160156
1758.458984	14758.141602
1757.392578	14812.135742
1756.326172	14741.925781
1755.257813	14633.360352
1754.189453	14617.375000
1753.123047	14511.122070
1752.054688	14680.186523
1750.986328	14736.392578
1749.917969	14808.369141
1748.849609	14668.324219
1747.779297	14595.972656
1746.710938	14546.190430
1745.642578	14419.783203
1744.572266	14561.617188
1743.503906	14750.723633
1742.433594	14419.319336
1741.363281	14612.891602
1740.292969	14540.630859
1739.222656	14574.232422
1738.152344	14621.331055
1737.082031	14589.624023
1736.011719	14584.936523
1734.941406	14503.736328
1733.869141	14427.063477
1732.798828	14305.422852
1731.726563	14588.688477
1730.656250	14570.509766
1729.583984	14316.242188
1728.511719	14356.564453
1727.439453	14471.049805
1726.367188	14264.120117
1725.294922	14533.624023
1724.222656	14311.025391
1723.148438	14420.947266
1722.076172	14389.340820
1721.001953	14391.426758
1719.929688	14296.971680
1718.855469	14319.274414
1717.781250	14112.642578
1716.707031	14121.503906
1715.632813	14206.644531
1714.558594	14244.648438
1713.484375	14531.598633
1712.410156	14215.219727
1711.335938	13999.840820
1710.259766	14232.884766
1709.185547	14183.435547
1708.109375	14131.762695
1707.033203	14127.159180
1705.958984	14122.556641
1704.882813	14290.426758
1703.806641	14142.468750
1702.730469	14133.386719
1701.652344	14240.722656
1700.576172	14200.288086
1699.500000	13953.970703
1698.421875	14273.856445
1697.345703	14150.657227
1696.267578	13991.708984
1695.189453	14251.040039
1694.113281	14224.058594
1693.035156	14098.712891
1691.957031	14094.119141
1690.878906	14158.811523
1689.800781	14290.521484
1688.720703	14006.613281
1687.642578	14022.140625
1686.562500	14182.841797
1685.484375	14312.224609
1684.404297	14238.380859
1683.326172	14133.308594
1682.246094	14376.465820
1681.166016	14258.014648
1680.085938	14222.159180
1679.005859	14114.926758
1677.923828	14273.163086
1676.843750	14232.861328
1675.763672	14283.994141
1674.681641	14448.809570
1673.601563	14488.743164
1672.519531	14406.085938
1671.437500	14154.105469
1670.355469	14396.807617
1669.275391	14213.965820
1668.193359	14536.753906
1667.109375	14289.372070
1666.027344	14476.226563
1664.945313	14333.561523
1663.861328	14121.947266
1662.779297	14769.373047
1661.695313	14286.313477
1660.613281	14535.296875
1659.529297	14541.759766
1658.445313	14403.671875
1657.361328	14419.047852
1656.277344	14605.593750
1655.193359	14856.536133
1654.109375	14538.476563
1653.023438	14278.294922
1651.939453	14509.169922
1650.853516	14526.730469
1649.769531	14382.163086
1648.683594	14384.195313
1647.597656	14312.962891
1646.511719	14497.021484
1645.425781	14348.115234
1644.339844	14288.018555
1643.253906	14347.745117
1642.167969	14267.703125
1641.082031	14238.698242
1639.994141	14254.052734
1638.908203	14205.104492
1637.820313	14306.911133
1636.732422	14003.085938
1635.644531	14240.068359
1634.556641	14222.171875
1633.468750	14210.927734
1632.380859	14352.513672
1631.292969	14133.084961
1630.205078	14480.551758
1629.117188	13991.092773
1628.027344	14070.644531
1626.937500	14094.841797
1625.849609	14034.949219
1624.759766	14189.669922
1623.669922	14127.569336
1622.580078	14041.161133
1621.490234	14432.397461
1620.400391	14567.048828
1619.310547	14053.994141
1618.220703	14456.080078
1617.128906	14259.202148
1616.039063	14075.646484
1614.947266	14159.435547
1613.855469	13962.705078
1612.765625	14004.527344
1611.673828	13754.899414
1610.582031	13902.701172
1609.490234	14030.588867
1608.398438	13635.435547
1607.304688	13816.277344
1606.212891	13908.817383
1605.119141	13756.500977
1604.027344	13734.346680
1602.933594	13663.690430
1601.841797	13586.444336
1600.748047	13650.290039
1599.654297	13555.440430
1598.560547	13691.980469
1597.466797	13350.415039
1596.373047	13370.202148
1595.277344	13480.275391
1594.183594	13422.964844
1593.087891	13400.898438
1591.994141	13715.621094
1590.898438	13420.609375
1589.802734	13847.445313
1588.708984	13611.912109
1587.613281	13567.833008
1586.517578	13539.164063
1585.419922	13477.518555
1584.324219	13508.235352
1583.228516	13360.883789
1582.130859	13400.400391
1581.035156	13727.775391
1579.937500	13885.861328
1578.841797	13909.890625
1577.744141	14028.356445
1576.646484	14179.722656
1575.548828	14482.538086
1574.451172	14721.587891
1573.353516	14758.624023
1572.253906	14523.523438
1571.156250	14244.617188
1570.058594	14461.606445
1568.958984	14481.111328
1567.859375	13963.306641
1566.761719	13853.518555
1565.662109	13706.497070
1564.562500	13491.574219
1563.462891	13555.055664
1562.363281	13644.810547
1561.263672	13414.667969
1560.162109	13438.700195
1559.062500	13300.654297
1557.960938	13368.492188
1556.861328	13486.662109
1555.759766	13385.890625
1554.658203	13482.130859
1553.556641	13243.529297
1552.457031	13431.653320
1551.353516	13359.394531
1550.251953	13212.794922
1549.150391	13186.519531
1548.048828	13201.794922
1546.945313	13363.532227
1545.843750	13426.857422
1544.740234	13114.281250
1543.636719	13363.349609
1542.535156	13188.518555
1541.431641	13302.066406
1540.328125	13162.246094
1539.222656	13424.238281
1538.119141	13140.355469
1537.015625	13138.145508
1535.912109	13168.672852
1534.806641	13096.632813
1533.703125	13210.059570
1532.597656	13220.926758
1531.492188	13081.303711
1530.386719	13002.783203
1529.281250	13249.140625
1528.175781	13059.446289
1527.070313	13068.146484
1525.964844	13120.426758
1524.857422	13085.538086
1523.751953	13098.585938
1522.644531	13139.943359
1521.539063	13076.758789
1520.431641	12989.644531
1519.324219	13002.698242
1518.216797	13020.099609
1517.109375	13228.998047
1516.001953	12802.488281
1514.894531	12952.615234
1513.787109	12919.985352
1512.677734	12830.822266
1511.570313	13172.210938
1510.460938	13183.038086
1509.353516	12983.019531
1508.244141	12880.865234
1507.134766	13000.378906
1506.025391	12648.415039
1504.916016	13048.134766
1503.806641	12900.428711
1502.697266	12874.372070
1501.585938	12872.204102
1500.476563	12961.207031
1499.365234	12906.936523
1498.255859	12659.558594
1497.144531	13100.024414
1496.033203	12798.464844
1494.921875	13019.703125
1493.810547	12837.525391
1492.699219	12690.098633
1491.587891	12900.403320
1490.474609	12731.340820
1489.363281	12776.872070
1488.250000	12644.719727
1487.138672	12841.890625
1486.025391	12805.072266
1484.912109	12805.081055
1483.800781	12547.428711
1482.687500	12463.050781
1481.572266	12668.742188
1480.458984	12694.742188
1479.345703	12657.983398
1478.232422	12586.622070
1477.117188	12839.739258
1476.003906	12532.640625
1474.888672	12472.146484
1473.773438	12658.133789
1472.658203	12403.096680
1471.542969	12407.490234
1470.427734	12796.512695
1469.312500	12435.716797
1468.197266	12399.058594
1467.082031	12617.263672
1465.964844	12671.281250
1464.849609	12554.717773
1463.732422	12442.509766
1462.617188	12667.033203
1461.500000	12289.417969
1460.382813	12194.571289
1459.265625	12533.353516
1458.148438	12583.004883
1457.031250	12485.999023
1455.912109	12421.366211
1454.794922	12524.904297
1453.675781	12451.664063
1452.558594	12578.866211
1451.439453	12518.569336
1450.320313	12587.549805
1449.201172	12419.574219
1448.082031	12525.159180
1446.962891	12378.781250
1445.843750	12617.812500
1444.724609	12292.812500
1443.605469	12338.084961
1442.484375	12411.315430
1441.365234	12564.122070
1440.244141	12381.316406
1439.123047	12409.336914
1438.001953	12331.983398
1436.882813	12594.345703
1435.759766	12469.694336
1434.638672	12235.475586
1433.517578	12489.125000
1432.396484	12566.511719
1431.273438	12345.282227
1430.152344	12512.872070
1429.029297	12547.266602
1427.908203	12227.387695
1426.785156	12560.206055
1425.662109	12304.820313
1424.539063	12307.036133
1423.416016	12326.415039
1422.292969	12500.243164
1421.167969	12435.931641
1420.044922	12669.727539
1418.919922	12491.769531
1417.796875	12316.014648
1416.671875	12361.090820
1415.546875	12253.994141
1414.423828	12292.636719
1413.298828	12209.152344
1412.171875	12404.152344
1411.046875	12500.571289
1409.921875	12372.126953
1408.796875	12511.336914
1407.669922	12168.879883
1406.544922	12479.289063
1405.417969	12419.407227
1404.291016	12205.504883
1403.164063	12239.807617
1402.037109	12327.566406
1400.910156	12220.705078
1399.783203	12222.916016
1398.656250	12310.631836
1397.529297	12233.748047
1396.400391	12216.722656
1395.273438	12391.993164
1394.144531	12180.552734
1393.015625	12302.373047
1391.888672	12146.540039
1390.759766	12044.137695
1389.630859	12063.450195
1388.501953	12112.636719
1387.371094	12074.311523
1386.242188	12236.563477
1385.113281	12236.628906
1383.982422	12349.739258
1382.853516	12482.004883
1381.722656	12492.688477
1380.591797	12690.971680
1379.460938	12603.566406
1378.330078	12656.845703
1377.199219	12437.366211
1376.068359	12552.436523
1374.937500	12330.917969
1373.804688	12348.000977
1372.673828	12220.282227
1371.541016	12107.508789
1370.408203	12158.677734
1369.277344	11901.230469
1368.144531	11997.100586
1367.011719	11865.291992
1365.878906	11944.118164
1364.746094	11874.040039
1363.611328	11812.491211
1362.478516	12103.895508
1361.343750	11876.519531
1360.210938	11757.614258
1359.076172	11859.751953
1357.941406	11893.865234
1356.808594	11653.930664
1355.673828	11921.700195
1354.539063	12000.379883
1353.402344	11919.790039
1352.267578	11811.629883
1351.132813	11996.412109
1349.996094	12102.611328
1348.861328	12017.813477
1347.724609	12259.744141
1346.587891	12300.091797
1345.453125	12287.406250
1344.316406	12132.661133
1343.179688	12378.647461
1342.041016	12158.229492
1340.904297	12173.125977
1339.767578	12014.265625
1338.628906	12071.551758
1337.492188	11936.061523
1336.353516	12092.878906
1335.216797	11965.900391
1334.078125	11934.234375
1332.939453	12264.545898
1331.800781	12084.691406
1330.662109	12084.761719
1329.521484	12309.093750
1328.382813	12184.320313
1327.244141	12211.867188
1326.103516	12436.062500
1324.964844	12385.329102
1323.824219	12298.674805
1322.683594	12590.375000
1321.542969	12791.107422
1320.402344	12742.458984
1319.261719	12791.000000
1318.121094	12858.533203
1316.978516	13006.289063
1315.837891	12828.839844
1314.697266	12655.672852
1313.554688	12640.864258
1312.412109	12381.263672
1311.269531	12163.949219
1310.128906	12056.407227
1308.986328	12197.793945
1307.841797	12058.648438
1306.699219	12212.636719
1305.556641	12370.789063
1304.414063	12396.093750
1303.269531	12415.067383
1302.125000	12459.319336
1300.982422	12105.380859
1299.837891	11913.753906
1298.693359	11804.326172
1297.548828	11623.342773
1296.404297	11501.369141
1295.259766	11775.169922
1294.113281	11592.176758
1292.968750	11882.702148
1291.824219	11670.298828
1290.677734	11386.445313
1289.531250	11904.000977
1288.384766	11435.155273
1287.240234	11685.511719
1286.093750	11755.001953
1284.945313	11841.282227
1283.798828	11874.998047
1282.652344	11725.911133
1281.505859	11326.892578
1280.357422	11268.262695
1279.210938	11346.150391
1278.062500	11253.942383
1276.914063	11327.606445
1275.765625	11195.552734
1274.617188	11365.734375
1273.468750	10986.131836
1272.320313	11101.746094
1271.171875	11039.036133
1270.021484	11204.932617
1268.873047	11190.450195
1267.722656	11113.081055
1266.572266	11094.426758
1265.423828	11147.032227
1264.273438	10973.322266
1263.123047	10975.649414
1261.972656	11053.382813
1260.822266	11072.449219
1259.669922	11072.664063
1258.519531	11104.281250
1257.367188	11081.464844
1256.216797	10843.090820
1255.064453	11010.742188
1253.912109	10954.477539
1252.759766	10990.269531
1251.607422	11044.872070
1250.455078	10856.890625
1249.302734	10911.497070
1248.150391	10711.058594
1246.998047	10880.621094
1245.843750	10805.635742
1244.689453	10822.603516
1243.537109	10831.210938
1242.382813	10898.294922
1241.228516	10973.708984
1240.074219	10909.208008
1238.919922	10696.514648
1237.765625	10959.768555
1236.611328	10724.182617
1235.455078	10922.662109
1234.300781	10851.964844
1233.144531	10877.235352
1231.988281	10787.800781
1230.833984	10815.158203
1229.677734	10784.134766
1228.521484	10899.025391
1227.365234	10740.874023
1226.207031	10764.052734
1225.050781	10820.555664
1223.894531	10885.370117
1222.736328	10839.786133
1221.580078	10833.779297
1220.421875	10621.668945
1219.263672	10861.319336
1218.105469	10686.737305
1216.947266	10649.546875
1215.789063	10651.897461
1214.630859	10635.525391
1213.472656	10731.464844
1212.312500	10866.879883
1211.154297	10771.475586
1209.994141	10807.060547
1208.833984	10738.716797
1207.675781	10784.683594
1206.515625	10899.196289
1205.355469	10494.353516
1204.193359	10606.798828
1203.033203	10580.076172
1201.873047	10661.325195
1200.712891	10761.228516
1199.550781	10740.718750
1198.388672	10657.960938
1197.228516	10608.426758
1196.066406	10627.367188
1194.904297	10673.262695
1193.742188	10584.350586
1192.580078	10570.109375
1191.417969	10620.136719
1190.253906	10686.727539
1189.091797	10566.787109
1187.927734	10602.284180
1186.765625	10664.700195
1185.601563	10679.455078
1184.437500	10574.091797
1183.273438	10810.407227
1182.109375	10692.635742
1180.945313	10837.775391
1179.781250	10846.278320
1178.615234	10916.852539
1177.451172	10749.489258
1176.285156	10807.644531
1175.121094	10669.310547
1173.955078	10655.087891
1172.789063	10415.523438
1171.623047	10407.548828
1170.457031	10236.307617
1169.291016	10373.009766
1168.125000	10369.176758
1166.957031	10328.164063
1165.791016	10462.713867
1164.623047	10279.218750
1163.457031	10502.506836
1162.289063	10238.561523
1161.121094	10641.336914
1159.953125	10672.540039
1158.785156	10740.870117
1157.617188	10613.208984
1156.449219	10518.589844
1155.279297	10339.455078
1154.111328	10479.956055
1152.941406	10140.097656
1151.773438	10229.057617
1150.603516	10256.164063
1149.433594	10044.259766
1148.263672	10203.228516
1147.093750	10156.177734
1145.923828	10191.514648
1144.751953	10078.593750
1143.582031	10155.103516
1142.410156	10188.362305
1141.240234	10126.946289
1140.068359	10061.436523
1138.896484	10164.638672
1137.724609	10181.417969
1136.552734	10056.291992
1135.380859	10142.992188
1134.208984	10011.747070
1133.037109	9950.431641
1131.863281	10197.402344
1130.691406	9990.188477
1129.517578	9916.581055
1128.343750	10068.944336
1127.171875	10134.999023
1125.998047	9934.095703
1124.824219	10178.760742
1123.650391	10066.182617
1122.474609	9972.112305
1121.300781	9986.826172
1120.125000	10001.536133
1118.951172	10020.341797
1117.775391	10080.159180
1116.601563	10088.692383
1115.425781	10086.971680
1114.250000	9904.864258
1113.074219	9907.273438
1111.896484	9930.171875
1110.720703	9998.136719
1109.544922	9730.132813
1108.367188	9916.897461
1107.191406	9962.303711
1106.013672	9882.801758
1104.835938	9885.208984
1103.658203	9949.016602
1102.480469	10043.497070
1101.302734	9869.917969
1100.125000	9743.448242
1098.947266	9702.924805
1097.769531	9893.494141
1096.589844	9928.608398
1095.410156	9773.593750
1094.232422	9978.359375
1093.052734	9604.728516
1091.873047	9784.933594
1090.693359	9813.906250
1089.513672	9806.102539
1088.333984	9886.114258
1087.152344	9919.136719
1085.972656	9852.116211
1084.791016	9597.334961
1083.611328	9665.082031
1082.429688	9794.017578
1081.248047	9739.302734
1080.066406	9974.247070
1078.884766	10015.370117
1077.703125	9689.454102
1076.521484	9702.069336
1075.337891	9698.373047
1074.156250	9631.500977
1072.972656	9603.366211
1071.791016	9609.874023
1070.607422	9481.942383
1069.423828	9655.468750
1068.240234	9771.919922
1067.056641	9530.014648
1065.873047	9396.076172
1064.689453	9502.334961
1063.503906	9498.676758
1062.320313	9556.053711
1061.134766	9556.454102
1059.949219	9695.153320
1058.763672	9378.309570
1057.580078	9557.653320
1056.394531	9478.774414
1055.207031	9296.268555
1054.021484	9416.602539
1052.835938	9240.264648
1051.648438	9417.445313
1050.462891	9342.718750
1049.275391	9464.992188
1048.089844	9240.037109
1046.902344	9277.026367
1045.714844	9307.914063
1044.527344	9434.166992
1043.339844	9361.540039
1042.150391	9585.113281
1040.962891	9127.118164
1039.773438	9147.863281
1038.585938	9282.144531
1037.396484	9128.515625
1036.207031	9329.640625
1035.019531	9204.426758
1033.830078	9308.211914
1032.638672	9150.631836
1031.449219	9373.893555
1030.259766	9222.429688
1029.070313	9273.496094
1027.878906	9324.543945
1026.687500	9270.321289
1025.498047	9254.569336
1024.306641	9230.727539
1023.115234	9257.469727
1021.923828	9211.385742
1020.732422	9181.496094
1019.539063	9192.056641
1018.347656	9291.566406
1017.156250	9190.930664
1015.962891	9334.867188
1014.769531	9280.732422
1013.578125	9178.128906
1012.384766	9317.953125
1011.191406	9249.710938
1009.998047	9141.107422
1008.804688	9264.712891
1007.609375	9331.756836
1006.416016	9431.069336
1005.220703	9891.542969
1004.027344	10654.486328
1002.832031	11572.490234
1001.636719	12589.002930
1000.441406	13054.668945
999.246094	12068.560547
998.050781	10893.305664
996.855469	9915.965820
995.660156	9323.843750
994.462891	9360.526367
993.267578	9250.144531
992.070313	9165.983398
990.873047	9156.357422
989.675781	9233.309570
988.478516	9008.282227
987.281250	9246.247070
986.083984	9168.193359
984.886719	9001.638672
983.687500	9227.411133
982.490234	8992.518555
981.291016	9023.152344
980.093750	9049.753906
978.894531	9078.356445
977.695313	8809.480469
976.496094	8898.401367
975.296875	8880.801758
974.097656	8971.687500
972.896484	8849.636719
971.697266	8769.798828
970.496094	8774.318359
969.296875	8873.189453
968.095703	8959.982422
966.894531	8651.402344
965.693359	8852.572266
964.492188	8754.759766
963.291016	8660.992188
962.087891	8950.294922
960.886719	8886.601563
959.685547	8734.720703
958.482422	8909.610352
957.279297	8619.496094
956.076172	8790.336914
954.875000	8544.416016
953.669922	8639.095703
952.466797	8591.551758
951.263672	8638.132813
950.060547	8722.737305
948.855469	8489.046875
947.652344	8631.684570
946.447266	8540.159180
945.242188	8624.720703
944.037109	8601.237305
942.833984	8457.764648
941.626953	8530.297852
940.421875	8472.853516
939.216797	8421.426758
938.011719	8475.940430
936.804688	8550.417969
935.597656	8558.939453
934.392578	8457.591797
933.185547	8567.982422
931.978516	8418.744141
930.771484	8433.270508
929.564453	8629.442383
928.357422	8432.369141
927.148438	8311.192383
925.941406	8455.410156
924.732422	8342.249023
923.523438	8472.449219
922.316406	8538.793945
921.107422	8381.812500
919.898438	8493.998047
918.689453	8454.669922
917.478516	8443.253906
916.269531	8328.236328
915.060547	8478.201172
913.849609	8407.034180
912.640625	8413.554688
911.429688	8392.198242
910.218750	8464.412109
909.007813	8303.729492
907.796875	8358.022461
906.585938	8344.647461
905.375000	8339.234375
904.162109	8419.348633
902.951172	8328.413086
901.738281	8328.968750
900.525391	8323.561523
899.314453	8031.938965
898.101563	8386.279297
896.888672	8410.666992
895.675781	8343.663086
894.460938	8145.590332
893.248047	8263.343750
892.035156	8184.485352
890.820313	8083.816895
889.605469	8265.035156
888.392578	8235.830078
887.177734	8109.409180
885.962891	8207.207031
884.748047	8156.207031
883.531250	8164.719727
882.316406	8105.812988
881.101563	8191.647949
879.884766	8130.773926
878.669922	8145.229492
877.453125	8143.827637
876.236328	8015.634277
875.019531	8038.024414
873.802734	8038.621094
872.585938	8158.023926
871.369141	8130.883301
870.150391	7907.788574
868.933594	8086.523438
867.714844	8150.430176
866.496094	8125.286133
865.279297	7914.212891
864.060547	7948.449707
862.841797	8020.244141
861.623047	7979.322266
860.402344	8035.272461
859.183594	7743.364746
857.964844	7983.105469
856.744141	7930.362793
855.523438	7923.071289
854.304688	7801.231934
853.083984	7938.114258
851.863281	7808.416504
850.642578	7651.127441
849.419922	7874.803711
848.199219	7816.221680
846.978516	7737.930176
845.755859	7843.118164
844.535156	7845.711426
843.312500	7660.969727
842.089844	7665.564453
840.867188	7585.393555
839.644531	7895.491211
838.421875	7736.484375
837.197266	7804.109863
835.974609	7769.276367
834.751953	7754.150391
833.527344	7612.999512
832.302734	7788.886719
831.078125	7783.606934
829.853516	7640.554688
828.628906	7660.884277
827.404297	7671.368652
826.179688	7734.962891
824.955078	7609.718262
823.728516	7655.602539
822.503906	7579.567871
821.277344	7749.288086
820.050781	7696.849121
818.824219	7506.867676
817.597656	7572.376465
816.371094	7718.405762
815.144531	7673.863770
813.917969	7629.336914
812.689453	7826.329590
811.462891	7618.852539
810.234375	7480.144043
809.005859	7555.388672
807.777344	7599.213379
806.548828	7723.455078
805.320313	7420.063477
804.091797	7628.619141
802.863281	7482.207520
801.632813	7539.729004
800.404297	7661.912109
799.173828	7535.166992
797.943359	7531.907227
796.714844	7428.736328
795.484375	7686.004883
794.251953	7435.964355
793.021484	7571.743652
791.791016	7539.113281
790.560547	7623.936035
789.328125	7624.576660
788.095703	7635.000488
786.865234	7514.345215
785.632813	7356.566406
784.400391	7353.340820
783.167969	7559.336914
781.935547	7268.691406
780.701172	7324.121582
779.468750	7328.719727
778.236328	7352.855469
777.001953	7453.175293
775.767578	7365.942383
774.535156	7274.833496
773.300781	7445.408691
772.066406	7455.836426
770.830078	7302.295410
769.595703	7289.324219
768.361328	7264.649414
767.125000	7202.914551
765.890625	7246.534180
764.654297	7231.629883
763.417969	7006.137207
762.181641	7178.441406
760.945313	7132.367676
759.708984	7211.041016
758.472656	7032.472656
757.236328	7150.101074
755.998047	7189.771484
754.761719	6964.556641
753.523438	7117.185059
752.285156	6897.900879
751.046875	7106.938477
749.808594	7051.214844
748.570313	7088.914063
747.332031	7107.144043
746.093750	7018.379883
744.853516	7118.300293
743.615234	6909.002441
742.375000	7020.572266
741.134766	6999.918945
739.894531	7006.482910
738.654297	6954.747559
737.414063	7000.173340
736.173828	7146.595703
734.933594	6939.485840
733.691406	7081.983398
732.451172	6906.020508
731.208984	6803.883789
729.966797	6891.986328
728.724609	6921.842285
727.482422	6947.807129
726.240234	6958.243652
724.998047	7005.527832
723.755859	6837.545898
722.511719	7026.369141
721.269531	6885.580566
720.025391	6919.275879
718.781250	6929.705566
717.539063	6779.318359
716.294922	6873.065918
715.050781	7019.075195
713.804688	6830.020020
712.560547	6801.731445
711.316406	6852.821289
710.070313	6950.344727
708.824219	6838.837402
707.580078	6833.783691
706.333984	6737.810547
705.087891	6705.697266
703.841797	6799.292969
702.595703	6873.520996
701.347656	6789.205566
700.101563	6832.483887
698.853516	6771.394043
697.607422	6816.592285
696.359375	6728.479980
695.111328	6814.230957
693.863281	6708.769043
692.615234	6682.506348
691.367188	6648.530273
690.119141	6753.535645
688.869141	6715.699219
687.621094	6564.037598
686.371094	6678.647949
685.121094	6636.985840
683.873047	6597.266113
682.623047	6634.685059
681.373047	6571.845703
680.121094	6701.773926
678.871094	6556.078125
677.621094	6641.646973
676.369141	6447.850098
675.119141	6623.935547
673.867188	6665.154297
672.615234	6648.595215
671.363281	6866.906250
670.111328	6736.754883
668.859375	6881.845215
667.605469	6799.838379
666.353516	6679.384766
665.101563	6566.666016
663.847656	6603.989258
662.593750	6475.940430
661.339844	6349.857422
660.085938	6319.924316
658.832031	6439.900391
657.578125	6252.402344
656.324219	6241.712402
655.068359	6359.717773
653.814453	6427.750977
652.558594	6443.916504
651.304688	6344.889648
650.048828	6194.071289
648.792969	6229.459473
647.537109	6353.099609
646.281250	6204.275879
645.023438	6421.864746
643.767578	6253.902832
642.509766	6277.744141
641.253906	6351.422363
639.996094	6198.893555
638.738281	6213.148926
637.480469	6221.650879
636.222656	6172.675781
634.964844	6269.292480
633.707031	6363.960449
632.447266	6330.303711
631.189453	6357.921387
629.929688	6374.044434
628.669922	6527.955078
627.410156	6431.147949
626.150391	6439.596680
624.890625	6319.884766
623.630859	6205.951660
622.371094	6245.028320
621.109375	6129.235352
619.849609	6133.905273
618.587891	6058.305176
617.326172	6194.830566
616.066406	5960.676270
614.804688	6047.507324
613.541016	6191.602051
612.279297	5951.841309
611.017578	6044.354980
609.753906	5999.401855
608.492188	6026.986328
607.228516	5924.807129
605.964844	5984.827637
604.703125	5949.452637
603.439453	5927.439453
602.175781	6002.682129
600.910156	5854.838867
599.646484	5968.190430
598.382813	5913.789551
597.117188	5847.974609
595.851563	5869.819336
594.587891	5796.415039
593.322266	5900.154785
592.056641	5906.745605
590.789063	5821.949219
589.523438	5811.418945
588.257813	5886.535645
586.990234	5927.374512
585.724609	5663.795898
584.457031	5685.636719
583.189453	5798.759277
581.921875	5852.894531
580.654297	5747.310547
579.386719	5698.789063
578.119141	5686.394531
576.851563	5694.905762
575.582031	5661.617188
574.314453	5691.024414
573.044922	5705.228027
571.775391	5660.560547
570.505859	5650.083008
569.236328	5711.740723
567.966797	5663.299316
566.697266	5685.083984
565.425781	5653.738770
564.156250	5755.187012
562.884766	5560.735352
561.615234	5624.239258
560.343750	5556.903320
559.072266	5768.240234
557.800781	5774.816895
556.529297	5828.764160
555.255859	5967.948242
553.984375	5743.386719
552.710938	5751.855957
551.439453	5699.727051
550.166016	5660.869141
548.892578	5603.094727
547.619141	5480.992188
546.345703	5710.895020
545.072266	5596.383301
543.798828	5438.403809
542.523438	5488.521484
541.250000	5389.235352
539.974609	5533.874512
538.699219	5529.129883
537.423828	5522.496094
536.148438	5394.927734
534.873047	5458.224121
533.597656	5476.163086
532.322266	5393.996582
531.044922	5515.797363
529.769531	5475.187988
528.492188	5459.132324
527.214844	5475.166504
525.937500	5579.884766
524.660156	5480.804199
523.382813	5545.871094
522.105469	5480.779297
520.828125	5295.025879
519.548828	5252.624512
518.269531	5217.777832
516.992188	5263.985352
515.712891	5263.067383
514.433594	5199.976074
513.154297	5161.394531
511.875000	5279.147949
510.595703	5266.928711
509.314453	5245.299805
508.035156	5268.855957
506.753906	5200.182129
505.472656	5131.531738
504.191406	5130.636719
502.910156	5131.622559
501.628906	5070.542480
500.347656	5159.918457
499.066406	5049.971680
497.785156	5208.872070
496.501953	5125.267090
495.218750	5114.976563
493.937500	4993.840820
492.654297	5205.236328
491.371094	5078.492188
490.087891	5077.605469
488.802734	5063.576660
487.519531	5062.692871
486.236328	5020.518555
484.951172	4970.853027
483.666016	4969.984863
482.382813	5087.295410
481.097656	5020.764160
479.812500	5034.888672
478.525391	4929.017090
477.240234	4920.658203
475.955078	4893.559570
474.667969	5065.102051
473.382813	4963.045410
472.095703	4904.108398
470.808594	4944.455078
469.521484	4902.395020
468.234375	4991.406250
466.947266	4846.396484
465.660156	4918.541504
464.371094	4919.553223
463.083984	4890.629883
461.794922	4970.211426
460.505859	4898.271973
459.218750	4914.245605
457.929688	4881.603027
456.640625	4824.670410
455.349609	4792.054688
454.060547	4832.327148
452.771484	4844.560547
451.480469	4830.637695
450.189453	4725.203613
448.900391	4690.765137
447.609375	4740.354492
446.318359	4704.058594
445.025391	4645.378906
443.734375	4780.787109
442.443359	4664.276855
441.150391	4600.038086
439.859375	4789.469727
438.566406	4661.830078
437.273438	4700.166992
435.980469	4731.034180
434.687500	4558.741211
433.394531	4505.768066
432.101563	4640.985840
430.806641	4705.371094
429.513672	4499.678223
428.218750	4573.375977
426.923828	4585.608398
425.630859	4443.333984
424.335938	4552.364258
423.039063	4564.593262
421.744141	4524.723633
420.449219	4549.974121
419.152344	4547.317871
417.857422	4511.190918
416.560547	4488.091309
415.263672	4375.773438
413.966797	4553.427246
412.669922	4504.316406
411.373047	4497.954102
410.076172	4413.576172
408.779297	4435.090332
407.480469	4367.464355
406.181641	4442.819824
404.884766	4503.298340
403.585938	4400.433105
402.287109	4421.929688
400.988281	4385.904785
399.689453	4348.037109
398.388672	4458.554199
397.089844	4454.064453
395.789063	4455.138184
394.490234	4422.845215
393.189453	4410.950195
391.888672	4334.203613
390.587891	4303.801270
389.287109	4253.033203
387.986328	4383.782715
386.683594	4238.580566
385.382813	4335.961426
384.080078	4368.520508
382.777344	4410.322266
381.476563	4320.729004
380.173828	4399.525391
378.871094	4176.781738
377.566406	4362.843750
376.263672	4314.001465
374.960938	4361.313965
373.656250	4314.337402
372.353516	4313.581055
371.048828	4294.346191
369.744141	4319.458008
368.439453	4176.468262
367.134766	4247.762695
365.830078	4217.473145
364.523438	4174.270996
363.218750	4048.018799
361.912109	4003.015137
360.605469	4157.312500
359.300781	4173.187500
357.994141	4231.481934
356.687500	4192.010254
355.378906	4172.835449
354.072266	4223.724121
352.765625	4307.774414
351.457031	4334.663086
350.150391	4451.832031
348.841797	4543.166504
347.533203	4496.319336
346.224609	4482.638184
344.916016	4281.144043
343.607422	4241.730957
342.296875	4287.003906
340.988281	4115.095703
339.677734	4158.534668
338.367188	4080.535645
337.058594	3945.541992
335.748047	4016.573730
334.437500	3980.931885
333.125000	3965.525146
331.814453	4036.515625
330.503906	3883.269287
329.191406	3956.086426
327.880859	3874.556641
326.568359	3956.533447
325.255859	3944.819580
323.943359	3975.341553
322.630859	3833.281738
321.318359	3797.733154
320.003906	3886.991455
318.691406	3855.115234
317.376953	3803.069824
316.062500	3791.395996
314.750000	3865.920898
313.435547	3764.393066
312.121094	3818.729980
310.804688	3840.054443
309.490234	3722.090576
308.175781	3752.585693
306.859375	3810.549805
305.542969	3705.474609
304.228516	3743.281738
302.912109	3748.116699
301.595703	3652.260742
300.279297	3627.823730
298.960938	3630.845947
297.644531	3633.866943
296.328125	3660.669189
295.009766	3625.272461
293.691406	3688.642090
292.373047	3638.625000
291.054688	3656.266357
289.736328	3571.543945
288.417969	3695.185059
287.099609	3667.127441
285.779297	3668.309082
284.460938	3788.214355
283.140625	3723.630859
281.820313	3812.443848
280.500000	3830.028564
279.179688	3787.374268
277.859375	3757.509033
276.539063	3689.337646
275.218750	3675.918213
273.896484	3596.841309
272.574219	3614.444580
271.253906	3515.349365
269.931641	3474.624512
268.609375	3552.387939
267.287109	3562.696533
265.964844	3441.815430
264.640625	3402.953369
263.318359	3369.569336
261.994141	3374.439209
260.669922	3457.599365
259.347656	3406.018555
258.023438	3410.878906
256.699219	3495.808105
255.373047	3391.482910
254.048828	3389.066406
252.724609	3397.563477
251.398438	3424.242676
250.074219	3483.639404
248.748047	3417.582520
247.421875	3555.113770
246.095703	3443.636719
244.769531	3486.635742
243.441406	3467.855469
242.115234	3303.780762
240.789063	3246.904297
239.460938	3364.347656
238.132813	3282.065918
236.804688	3290.562500
235.476563	3262.762451
234.148438	3209.571533
232.820313	3192.679443
231.492188	3172.166016
230.162109	3251.395508
228.833984	3261.700684
227.503906	3297.380371
226.173828	3227.927002
224.843750	3147.625000
223.513672	3136.199219
222.183594	3199.047607
220.853516	3158.638184
219.521484	3080.215576
218.191406	3170.197510
216.859375	3057.406738
215.527344	3027.909668
214.197266	3068.995117
212.865234	3095.592041
211.531250	3051.632080
210.199219	3031.199219
208.867188	3083.104248
207.533203	3091.599854
206.201172	3076.593262
204.867188	3043.518799
203.533203	2988.771729
202.199219	3082.191406
200.865234	3065.390381
199.531250	2998.025635
198.195313	3031.805176
196.861328	2959.053955
195.525391	2994.633301
194.191406	3001.323730
192.855469	3074.776123
191.519531	3041.758789
190.183594	3041.221680
188.847656	3100.199951
187.509766	2953.595703
186.173828	3016.173828
184.835938	2968.775391
183.500000	2988.075439
182.162109	2926.282959
180.824219	2934.774170
179.486328	2968.479736
178.148438	2919.329834
176.810547	2891.804688
175.470703	2898.494873
174.132813	2858.383057
172.792969	2965.858398
171.453125	2837.580322
170.113281	2869.461426
168.773438	2865.356934
167.433594	2870.245850
166.093750	2787.026855
164.753906	2784.736328
163.412109	2782.446777
162.072266	2814.303223
160.730469	2826.383545
159.388672	2782.768066
158.046875	2715.817627
156.705078	2830.272217
155.363281	2871.069336
154.019531	2843.633301
152.677734	2852.104980
151.333984	2747.514648
149.992188	2761.382813
148.648438	2777.040039
147.304688	2848.294434
145.960938	2858.550537
144.617188	2958.453125
143.271484	2816.307617
141.927734	3002.215576
140.582031	2926.418457
139.238281	2970.694092
137.892578	2889.554688
136.546875	2957.105225
135.201172	2947.628174
133.855469	3031.258301
132.507813	3041.462891
131.162109	3112.517822
129.816406	3076.176758
128.468750	3038.059082
127.121094	3042.888184
125.773438	3020.886719
124.425781	3000.681152
123.078125	3005.513916
121.730469	3081.849121
120.380859	3174.243164
119.033203	3284.474121
117.683594	3349.999268
116.335938	3663.803467
114.986328	3750.670410
113.636719	3996.435303
112.287109	4306.387207
110.935547	4676.922363
109.585938	5266.852051
108.234375	5654.930176
106.884766	5682.474609
105.533203	5635.088379
104.181641	5209.616211
102.830078	4766.462402
101.478516	4441.135254
100.126953	4028.577881
98.775391	3685.673828
97.421875	3497.918701
96.070313	3271.034424
94.716797	3186.733887
93.363281	3018.757324
92.009766	2950.557129
90.656250	3003.444580
89.302734	3148.874756
87.949219	3385.018555
86.593750	3699.372314
85.240234	4043.858887
83.884766	4407.789551
82.529297	4499.487793
81.173828	4358.216797
79.818359	4067.658936
78.462891	3780.759033
77.105469	3756.984863
75.750000	3850.493164
74.394531	3935.085205
73.037109	3893.533691
71.679688	3496.810059
70.322266	3144.617676
68.964844	2909.719971
67.607422	2857.729248
66.250000	2919.335693
64.890625	3181.422607
63.533203	3480.671387
62.173828	3604.214600
60.814453	3477.662842
59.455078	3182.711426
58.095703	2666.266602
56.736328	2281.167480
55.376953	1949.369873
54.015625	1546.816162
52.656250	1133.776245
51.294922	775.790344
49.933594	502.934601
48.574219	331.098846
47.210938	214.202393
45.849609	141.596268
44.488281	113.256905
43.126953	93.774216
41.763672	74.298447
40.402344	84.897430
39.039063	76.040443
37.675781	72.490799
36.312500	53.032627
34.949219	68.930168
33.583984	63.616547
