#Wave		#Intensity
4003.722656	91.981583
4003.021484	49.834476
4002.319336	14.850250
4001.617188	-8.874673
4000.915039	0.740095
4000.212891	6.924909
3999.510742	23.734646
3998.807617	28.769911
3998.105469	34.948715
3997.402344	28.221527
3996.700195	21.823198
3995.997070	11.180572
3995.293945	-10.067623
3994.590820	-24.945366
3993.887695	-14.697217
3993.183594	-14.885365
3992.480469	5.149130
3991.776367	14.907069
3991.073242	0.849642
3990.369141	-7.503801
3989.665039	-8.184746
3988.960938	-27.618296
3988.256836	-23.245667
3987.552734	-19.857502
3986.848633	-9.470520
3986.143555	-1.192390
3985.439453	3.493821
3984.734375	3.940454
3984.029297	-2.449461
3983.324219	-7.209851
3982.619141	-4.479444
3981.914063	-1.598260
3981.208984	-4.727121
3980.503906	11.659797
3979.797852	15.517986
3979.091797	11.407284
3978.386719	12.496116
3977.680664	4.652730
3976.974609	4.919329
3976.268555	17.713949
3975.562500	16.366795
3974.855469	10.793253
3974.149414	13.992038
3973.442383	3.538418
3972.736328	19.405785
3972.029297	19.517179
3971.322266	14.105303
3970.615234	5.448544
3969.908203	13.018830
3969.201172	6.962776
3968.493164	12.910782
3967.786133	2.313302
3967.078125	-5.364092
3966.371094	-3.478377
3965.663086	9.439921
3964.955078	7.436378
3964.247070	22.615978
3963.539063	20.769804
3962.830078	12.122063
3962.122070	2.508475
3961.414063	-1.927073
3960.705078	7.560129
3959.996094	15.275183
3959.287109	7.612016
3958.578125	1.235734
3957.869141	-4.983481
3957.160156	4.499604
3956.451172	31.621519
3955.741211	34.954910
3955.032227	21.945316
3954.322266	17.187613
3953.612305	20.349092
3952.902344	5.897349
3952.192383	-1.115670
3951.482422	-11.365314
3950.772461	-18.704300
3950.061523	-15.698843
3949.351563	2.332084
3948.640625	0.324956
3947.929688	13.011524
3947.219727	14.882332
3946.508789	23.687876
3945.796875	38.137447
3945.085938	45.486607
3944.375000	33.150211
3943.663086	27.914156
3942.952148	-1.197320
3942.240234	-4.498121
3941.528320	2.849527
3940.817383	12.288750
3940.104492	7.702838
3939.392578	4.249649
3938.680664	13.832561
3937.968750	15.049299
3937.255859	6.278399
3936.543945	-3.294880
3935.831055	-7.080459
3935.118164	-5.873676
3934.405273	16.760347
3933.692383	23.442408
3932.979492	19.179159
3932.265625	14.107619
3931.552734	19.821383
3930.838867	24.083735
3930.125977	10.334829
3929.412109	9.290038
3928.698242	-0.438501
3927.984375	-16.266066
3927.270508	-3.972193
3926.555664	10.252430
3925.841797	3.745975
3925.127930	20.212959
3924.413086	5.840319
3923.698242	-17.211889
3922.983398	-9.740721
3922.268555	11.044723
3921.553711	13.049841
3920.838867	35.602638
3920.124023	24.763489
3919.408203	14.728230
3918.693359	0.205713
3917.977539	1.571325
3917.261719	7.252704
3916.545898	18.876501
3915.830078	19.274569
3915.114258	23.838327
3914.398438	22.784704
3913.681641	14.684474
3912.965820	12.042576
3912.249023	18.518751
3911.533203	22.591269
3910.816406	30.991337
3910.099609	40.992367
3909.382813	28.897034
3908.665039	8.955863
3907.948242	8.709256
3907.231445	4.621729
3906.513672	10.612142
3905.795898	16.604902
3905.078125	15.075660
3904.361328	1.878331
3903.642578	-11.156511
3902.924805	-6.773923
3902.207031	8.960854
3901.489258	14.788696
3900.770508	18.060043
3900.051758	12.214134
3899.333984	-8.959685
3898.615234	-7.767081
3897.896484	0.447806
3897.177734	1.954754
3896.458008	17.505930
3895.739258	31.782801
3895.020508	23.071531
3894.300781	11.494218
3893.581055	0.876341
3892.861328	4.127692
3892.142578	12.651203
3891.421875	15.272943
3890.702148	5.621074
3889.982422	1.221440
3889.262695	-11.778615
3888.541992	-8.038061
3887.821289	4.613246
3887.101563	9.939631
3886.380859	6.503152
3885.660156	14.059468
3884.939453	13.802367
3884.217773	5.750736
3883.497070	21.099110
3882.775391	30.390690
3882.054688	26.796944
3881.333008	29.882311
3880.611328	32.015301
3879.889648	14.901115
3879.167969	13.534939
3878.446289	11.058863
3877.724609	-2.864575
3877.001953	0.700197
3876.280273	8.552274
3875.557617	16.400805
3874.834961	35.209824
3874.112305	38.767906
3873.389648	23.427835
3872.666992	6.345016
3871.944336	8.625769
3871.220703	11.387243
3870.498047	16.694773
3869.774414	15.335203
3869.050781	24.434126
3868.328125	24.651865
3867.604492	34.871029
3866.879883	41.116035
3866.156250	32.771309
3865.432617	15.869524
3864.708008	20.532223
3863.984375	17.422396
3863.259766	9.562665
3862.535156	7.096936
3861.810547	7.635256
3861.085938	1.996172
3860.361328	9.660642
3859.636719	14.002631
3858.911133	15.489566
3858.186523	3.367325
3857.460938	2.166340
3856.735352	-6.154358
3856.009766	-8.458506
3855.284180	5.677697
3854.558594	19.501657
3853.833008	4.549602
3853.107422	2.876649
3852.380859	-4.964664
3851.655273	2.361786
3850.928711	19.341352
3850.202148	42.468620
3849.475586	32.417419
3848.749023	28.687813
3848.022461	2.539570
3847.294922	-5.289775
3846.568359	-10.757831
3845.840820	5.410154
3845.114258	-4.303213
3844.386719	6.334461
3843.659180	4.182324
3842.931641	1.410209
3842.204102	6.682669
3841.475586	7.694970
3840.748047	-1.866024
3840.019531	-4.790107
3839.291992	-5.036047
3838.563477	-5.290552
3837.834961	-0.341412
3837.106445	2.876528
3836.377930	12.866688
3835.648438	4.426233
3834.919922	16.765099
3834.191406	23.286131
3833.461914	28.070526
3832.732422	19.635113
3832.002930	11.359048
3831.273438	4.337057
3830.543945	15.414722
3829.814453	1.484045
3829.084961	10.039565
3828.354492	10.415555
3827.625000	10.478537
3826.894531	13.532249
3826.164063	13.441185
3825.433594	0.929616
3824.703125	-0.886274
3823.972656	-1.134810
3823.242188	5.681294
3822.510742	4.334300
3821.780273	-1.877082
3821.048828	-6.048525
3820.317383	-25.442095
3819.585938	-31.022240
3818.854492	-15.106065
3818.123047	9.272252
3817.391602	22.357738
3816.659180	22.900164
3815.927734	10.573941
3815.195313	0.444377
3814.463867	0.351563
3813.731445	8.102078
3812.999023	11.144243
3812.266602	-4.456113
3811.533203	-10.184176
3810.800781	-15.441004
3810.068359	-11.459580
3809.334961	-19.371973
3808.601563	-13.507600
3807.868164	-11.095403
3807.134766	-12.119114
3806.401367	-12.674253
3805.667969	1.631087
3804.934570	-3.934597
3804.200195	7.861682
3803.466797	15.281644
3802.732422	6.592227
3801.998047	-2.563821
3801.263672	2.817651
3800.529297	-1.336140
3799.794922	-1.262437
3799.060547	4.427251
3798.325195	3.870055
3797.590820	0.346769
3796.855469	11.813295
3796.121094	8.916609
3795.385742	11.632663
3794.650391	22.938339
3793.914063	21.600901
3793.178711	17.297194
3792.443359	10.660782
3791.707031	-0.660919
3790.971680	7.826781
3790.235352	2.442061
3789.499023	-2.943207
3788.762695	-4.586621
3788.026367	-10.441153
3787.290039	-5.228358
3786.552734	12.915702
3785.816406	13.295195
3785.079102	12.897795
3784.342773	5.494465
3783.605469	7.116889
3782.868164	6.095828
3782.130859	7.880839
3781.393555	2.194914
3780.655273	-7.689467
3779.917969	2.950989
3779.179688	16.556442
3778.442383	17.562956
3777.704102	14.058823
3776.965820	12.569690
3776.227539	3.931191
3775.489258	28.247820
3774.750000	27.697573
3774.011719	16.581104
3773.272461	5.465378
3772.534180	-0.675340
3771.794922	-6.041816
3771.055664	-0.218511
3770.316406	-2.940073
3769.577148	-6.125813
3768.837891	2.945674
3768.097656	-1.167943
3767.358398	-2.952848
3766.618164	-3.346288
3765.877930	-2.807601
3765.137695	8.426092
3764.397461	10.523339
3763.657227	2.224225
3762.916992	-9.326294
3762.176758	-9.408366
3761.435547	-13.825561
3760.694336	-9.249742
3759.954102	-9.333455
3759.212891	-1.978058
3758.471680	4.908532
3757.730469	13.656272
3756.989258	3.208002
3756.247070	5.289423
3755.505859	18.824717
3754.763672	32.356010
3754.021484	34.754223
3753.280273	30.650930
3752.538086	16.026150
3751.795898	9.607892
3751.052734	6.437895
3750.310547	21.349400
3749.568359	18.177296
3748.825195	17.327765
3748.082031	18.330755
3747.339844	13.613611
3746.596680	10.751758
3745.853516	11.143121
3745.109375	2.573095
3744.366211	-11.858635
3743.623047	-5.763770
3742.878906	8.356585
3742.134766	23.401697
3741.391602	19.315212
3740.647461	13.685612
3739.903320	-11.068055
3739.159180	-22.087973
3738.414063	-16.613096
3737.669922	-9.901137
3736.924805	0.349804
3736.180664	7.984253
3735.435547	-1.795378
3734.690430	-2.490060
3733.945313	-5.485809
3733.200195	-1.867343
3732.455078	3.605879
3731.708984	-2.930009
3730.963867	3.917215
3730.217773	11.849904
3729.471680	13.464683
3728.725586	27.084425
3727.979492	10.862086
3727.233398	-6.593355
3726.487305	-3.434791
3725.741211	1.867777
3724.994141	-0.656572
3724.248047	10.187025
3723.500977	-1.720671
3722.753906	-10.242267
3722.006836	-14.918715
3721.259766	-0.395069
3720.512695	-5.383178
3719.764648	8.062785
3719.017578	12.598251
3718.269531	13.600719
3717.522461	9.844212
3716.774414	17.446947
3716.026367	16.912928
3715.278320	13.161587
3714.529297	-3.008952
3713.781250	-3.847707
3713.033203	-2.999213
3712.284180	2.759828
3711.535156	5.915073
3710.787109	9.523377
3710.038086	-5.869392
3709.289063	10.147134
3708.539063	16.666309
3707.790039	12.005825
3707.041016	4.586911
3706.291016	6.203270
3705.541016	-1.064316
3704.791016	5.609987
3704.041992	10.898481
3703.291016	8.840689
3702.541016	11.831628
3701.791016	5.957724
3701.041016	18.426682
3700.290039	15.605412
3699.539063	14.318714
3698.788086	6.916930
3698.038086	8.071994
3697.286133	-1.015893
3696.535156	-0.001859
3695.784180	-8.008917
3695.033203	-19.679829
3694.281250	-28.141668
3693.529297	-17.665279
3692.778320	-1.238000
3692.026367	5.262091
3691.274414	16.035675
3690.521484	17.496454
3689.769531	2.788216
3689.017578	-4.749036
3688.264648	1.591517
3687.511719	7.932096
3686.759766	15.495564
3686.006836	17.875591
3685.253906	11.101345
3684.500977	9.206641
3683.747070	4.730087
3682.994141	-5.687670
3682.240234	-12.146963
3681.487305	-21.344427
3680.733398	-16.529167
3679.979492	-17.646255
3679.225586	-15.573928
3678.471680	-3.155477
3677.717773	17.328762
3676.962891	25.333202
3676.208984	26.797531
3675.454102	19.125046
3674.699219	20.276314
3673.944336	10.641748
3673.189453	18.485323
3672.434570	12.193879
3671.679688	7.876456
3670.923828	17.238598
3670.168945	25.233322
3669.413086	18.636278
3668.658203	15.850527
3667.902344	11.079208
3667.146484	12.839893
3666.389648	12.632223
3665.633789	6.658298
3664.877930	9.180244
3664.121094	-5.292991
3663.365234	9.061819
3662.608398	24.628632
3661.851563	25.482084
3661.094727	16.477921
3660.337891	7.327230
3659.581055	-7.590258
3658.823242	-10.369321
3658.066406	-7.541411
3657.308594	-0.020634
3656.550781	7.499489
3655.792969	2.299383
3655.035156	20.565908
3654.277344	23.233358
3653.519531	25.144325
3652.761719	9.052439
3652.002930	7.783424
3651.244141	-6.047069
3650.486328	4.798041
3649.727539	13.367694
3648.968750	17.401167
3648.209961	-0.652230
3647.450195	7.008845
3646.691406	-2.717407
3645.932617	-0.654798
3645.172852	6.549530
3644.413086	18.129967
3643.653320	25.326628
3642.893555	16.671402
3642.133789	4.986280
3641.374023	3.875937
3640.613281	6.236717
3639.853516	8.758230
3639.092773	17.312817
3638.333008	15.442960
3637.572266	18.560553
3636.811523	13.534447
3636.049805	9.866181
3635.289063	-2.253567
3634.528320	-4.413469
3633.766602	-5.812974
3633.005859	6.194679
3632.244141	3.886038
3631.482422	14.685221
3630.720703	17.501255
3629.958984	14.439579
3629.197266	9.866249
3628.434570	9.069733
3627.672852	-6.638324
3626.910156	-10.896045
3626.147461	-13.503891
3625.384766	-10.840708
3624.622070	-1.101198
3623.859375	0.508796
3623.096680	2.116503
3622.333984	6.579131
3621.570313	6.837337
3620.806641	4.988183
3620.043945	9.298284
3619.280273	8.049165
3618.516602	8.455165
3617.752930	10.966389
3616.988281	6.711330
3616.224609	3.961684
3615.459961	16.531296
3614.696289	12.282925
3613.931641	9.835470
3613.166992	1.686351
3612.402344	14.542720
3611.637695	5.197179
3610.873047	4.858742
3610.107422	4.210503
3609.342773	4.765425
3608.577148	-7.273363
3607.811523	12.031348
3607.045898	14.378745
3606.280273	7.142271
3605.514648	9.052271
3604.749023	15.149121
3603.982422	-5.270134
3603.216797	-0.218166
3602.450195	9.327615
3601.683594	-1.198119
3600.916992	-9.471699
3600.150391	1.119059
3599.383789	-1.323004
3598.617188	7.018764
3597.849609	11.170717
3597.083008	-0.537440
3596.315430	-8.509662
3595.547852	-12.734310
3594.780273	-6.044791
3594.012695	-6.977755
3593.245117	-7.612641
3592.477539	-10.044694
3591.708984	-7.688995
3590.941406	-11.313072
3590.172852	3.737321
3589.404297	11.014897
3588.635742	18.144199
3587.867188	29.599987
3587.098633	21.349180
3586.330078	13.543146
3585.560547	-0.967603
3584.791992	-2.948732
3584.022461	3.573797
3583.252930	8.165730
3582.483398	6.785379
3581.713867	16.887089
3580.944336	0.445255
3580.174805	2.346778
3579.404297	-4.838191
3578.634766	-10.392532
3577.864258	0.892444
3577.093750	21.714716
3576.323242	28.229921
3575.552734	32.811134
3574.782227	20.259569
3574.010742	12.926043
3573.240234	25.833551
3572.468750	22.226860
3571.698242	17.577450
3570.926758	14.562703
3570.155273	8.573619
3569.383789	2.882901
3568.611328	6.572908
3567.839844	-7.886464
3567.067383	-9.557550
3566.295898	-2.456631
3565.523438	2.118364
3564.750977	10.555627
3563.978516	17.649010
3563.206055	10.632918
3562.433594	13.567410
3561.660156	2.696404
3560.887695	2.509417
3560.114258	13.160669
3559.341797	21.589933
3558.568359	15.322492
3557.794922	13.510696
3557.020508	2.788634
3556.247070	16.398870
3555.473633	27.935059
3554.699219	25.826481
3553.925781	22.676207
3553.151367	18.635439
3552.376953	15.487598
3551.602539	23.308186
3550.828125	8.314151
3550.052734	3.239800
3549.278320	-8.194426
3548.502930	-7.041703
3547.728516	-13.880020
3546.953125	-1.177135
3546.177734	-0.472043
3545.402344	19.183071
3544.626953	12.344693
3543.850586	11.872620
3543.075195	-0.441450
3542.298828	7.956455
3541.523438	12.509250
3540.747070	19.135775
3539.970703	18.066839
3539.194336	19.511154
3538.417969	24.352993
3537.640625	37.027596
3536.864258	31.234552
3536.086914	25.437815
3535.309570	8.423336
3534.533203	-10.507458
3533.755859	-15.556390
3532.977539	-7.759502
3532.200195	5.934027
3531.422852	21.847097
3530.644531	7.067993
3529.867188	2.460979
3529.088867	6.261915
3528.310547	3.874616
3527.532227	15.497932
3526.753906	9.869901
3525.975586	-2.842945
3525.196289	-0.363846
3524.417969	-3.922040
3523.638672	5.031196
3522.859375	16.641224
3522.080078	10.132440
3521.300781	0.390735
3520.521484	-15.978695
3519.742188	-37.206532
3518.962891	-1.615748
3518.182617	17.492933
3517.402344	20.119671
3516.623047	10.236360
3515.842773	3.141879
3515.062500	-12.480203
3514.281250	-1.320261
3513.500977	-4.285725
3512.720703	-1.669967
3511.939453	-7.425690
3511.158203	13.269041
3510.376953	16.768656
3509.596680	11.160163
3508.814453	17.151192
3508.033203	12.722345
3507.251953	-5.220895
3506.469727	1.950312
3505.688477	5.590710
3504.906250	7.470402
3504.124023	10.828495
3503.341797	-2.107806
3502.559570	3.874021
3501.777344	19.245716
3500.994141	31.101149
3500.211914	33.276264
3499.428711	13.456260
3498.646484	-12.370081
3497.863281	-12.686718
3497.080078	-8.606624
3496.295898	-7.748607
3495.512695	0.871440
3494.729492	-4.568417
3493.945313	-8.693183
3493.162109	5.190692
3492.377930	19.950264
3491.593750	23.731810
3490.809570	38.046555
3490.025391	20.900759
3489.240234	13.995374
3488.456055	11.045403
3487.670898	8.827328
3486.886719	4.414124
3486.101563	9.803889
3485.316406	-6.738480
3484.531250	-3.252412
3483.745117	3.298160
3482.959961	14.815861
3482.174805	15.819487
3481.388672	27.477121
3480.602539	18.687605
3479.816406	17.639746
3479.030273	15.280416
3478.244141	-1.669377
3477.458008	-7.100140
3476.671875	-2.447752
3475.884766	7.446470
3475.098633	13.700486
3474.311523	5.662005
3473.524414	4.900365
3472.737305	17.855356
3471.950195	16.663481
3471.162109	21.457121
3470.375000	16.767412
3469.586914	8.285445
3468.799805	13.220002
3468.011719	6.937068
3467.223633	5.457276
3466.435547	-0.536998
3465.647461	7.302387
3464.858398	17.617029
3464.070313	11.339156
3463.281250	5.784982
3462.493164	9.107928
3461.704102	2.249115
3460.915039	7.464743
3460.125977	9.480701
3459.335938	1.750141
3458.546875	-4.083923
3457.757813	-15.581983
3456.967773	-22.289637
3456.177734	-18.674196
3455.387695	-5.908849
3454.597656	1.484035
3453.807617	-4.486268
3453.017578	-10.754144
3452.226563	-13.965077
3451.436523	-6.728556
3450.645508	11.686917
3449.854492	13.990544
3449.063477	10.195752
3448.272461	8.870748
3447.481445	1.448055
3446.690430	7.807985
3445.898438	-3.514710
3445.107422	-8.175659
3444.315430	0.064232
3443.523438	7.434155
3442.731445	3.363248
3441.939453	-0.272636
3441.147461	-14.641740
3440.355469	-12.198746
3439.562500	3.570103
3438.770508	13.545648
3437.977539	3.825652
3437.184570	-0.827914
3436.391602	-0.268780
3435.598633	-7.087737
3434.804688	-13.466860
3434.011719	-12.328864
3433.217773	-11.047210
3432.424805	-3.109888
3431.630859	2.514611
3430.836914	4.951568
3430.042969	-8.509375
3429.249023	-12.571496
3428.454102	-18.077637
3427.660156	-12.028945
3426.865234	2.395124
3426.071289	9.604830
3425.276367	11.605712
3424.481445	10.574841
3423.686523	0.304850
3422.891602	1.297262
3422.095703	9.938760
3421.300781	8.328630
3420.504883	19.994873
3419.708984	24.879147
3418.913086	11.737431
3418.117188	7.246391
3417.321289	14.574852
3416.525391	15.275515
3415.728516	12.667343
3414.932617	13.224685
3414.135742	6.427811
3413.338867	8.713130
3412.541992	19.068342
3411.745117	26.822487
3410.948242	25.646130
3410.151367	20.445944
3409.353516	19.848875
3408.556641	9.466420
3407.758789	-4.509146
3406.960938	-1.648953
3406.163086	6.099581
3405.365234	4.930151
3404.567383	16.705364
3403.768555	15.105604
3402.970703	8.184048
3402.171875	12.188175
3401.373047	10.591291
3400.574219	9.420526
3399.775391	12.706030
3398.976563	-4.545392
3398.177734	-13.610900
3397.377930	-24.966028
3396.579102	-27.999525
3395.779297	-12.080881
3394.979492	2.402854
3394.179688	0.377158
3393.379883	0.937855
3392.580078	-5.969254
3391.780273	2.904425
3390.979492	18.517868
3390.178711	21.655844
3389.378906	11.891574
3388.578125	15.163086
3387.777344	11.847739
3386.976563	24.006510
3386.174805	31.440195
3385.374023	34.567825
3384.572266	22.799625
3383.771484	11.188106
3382.969727	-7.732147
3382.167969	-2.168613
3381.366211	0.244797
3380.564453	8.104061
3379.761719	-0.634534
3378.959961	-3.662099
3378.157227	7.758070
3377.354492	25.190252
3376.552734	36.326508
3375.750000	35.447815
3374.946289	11.124186
3374.143555	4.530262
3373.340820	-1.344892
3372.537109	-10.219064
3371.733398	-9.376909
3370.930664	2.746800
3370.126953	10.152740
3369.323242	18.562452
3368.518555	16.974945
3367.714844	8.247878
3366.911133	5.657211
3366.106445	-0.207715
3365.301758	-6.499170
3364.497070	-18.067314
3363.692383	-15.090429
3362.887695	-5.553289
3362.083008	10.687234
3361.278320	12.524176
3360.472656	4.669589
3359.666992	-6.894184
3358.862305	-12.465285
3358.056641	-11.198376
3357.250977	2.173954
3356.444336	12.696580
3355.638672	20.082359
3354.833008	27.893658
3354.026367	12.786524
3353.219727	-0.610944
3352.414063	-17.273035
3351.607422	-20.848280
3350.799805	-11.616918
3349.993164	12.263118
3349.186523	21.916203
3348.378906	27.445990
3347.572266	22.445221
3346.764648	13.331470
3345.957031	15.156018
3345.149414	18.975264
3344.341797	14.694724
3343.533203	9.137076
3342.725586	12.385448
3341.916992	3.843834
3341.109375	7.379449
3340.300781	8.497391
3339.492188	10.180981
3338.683594	9.168988
3337.874023	8.728761
3337.065430	3.604258
3336.255859	1.882972
3335.447266	9.521935
3334.637695	19.005520
3333.828125	24.233309
3333.018555	22.654278
3332.208984	17.673119
3331.399414	14.393928
3330.588867	19.332647
3329.778320	17.472570
3328.968750	12.214318
3328.158203	3.133937
3327.347656	-3.114533
3326.537109	-1.293515
3325.726563	3.364143
3324.915039	10.281397
3324.104492	22.287535
3323.292969	14.065598
3322.481445	7.117097
3321.669922	6.390915
3320.858398	-9.040284
3320.046875	-0.717304
3319.235352	14.395072
3318.422852	19.743391
3317.611328	16.618488
3316.798828	8.974707
3315.986328	0.331776
3315.173828	6.811157
3314.361328	11.876869
3313.548828	12.712811
3312.735352	4.787714
3311.922852	5.609825
3311.109375	10.533719
3310.295898	16.725798
3309.482422	17.556177
3308.668945	8.083238
3307.855469	8.625767
3307.041992	14.392015
3306.227539	12.257968
3305.414063	13.649725
3304.599609	10.247540
3303.785156	8.818586
3302.970703	19.507607
3302.156250	14.559261
3301.341797	7.639353
3300.526367	0.438929
3299.711914	-4.368444
3298.896484	-1.711186
3298.081055	22.201834
3297.265625	18.525858
3296.450195	16.959003
3295.634766	7.653098
3294.818359	-1.651555
3294.002930	-2.516010
3293.186523	6.753814
3292.371094	-1.139495
3291.554688	3.202241
3290.738281	3.605370
3289.921875	8.083625
3289.104492	15.093922
3288.288086	29.822889
3287.470703	30.082497
3286.654297	20.093399
3285.836914	7.153340
3285.019531	-6.345201
3284.202148	-6.508607
3283.383789	11.444012
3282.566406	17.322302
3281.748047	16.740627
3280.930664	11.110201
3280.112305	0.708589
3279.293945	2.653922
3278.475586	-1.007904
3277.657227	-4.530673
3276.838867	-0.622270
3276.019531	1.041560
3275.201172	13.353138
3274.381836	22.724220
3273.562500	24.663893
3272.743164	21.421364
3271.923828	9.638113
3271.104492	-2.705087
3270.284180	-9.300400
3269.464844	-8.900796
3268.644531	-3.318095
3267.824219	0.584815
3267.003906	-2.510213
3266.183594	-3.367278
3265.363281	-11.637930
3264.542969	-12.071681
3263.721680	-10.131021
3262.900391	-7.211280
3262.080078	3.532206
3261.258789	14.276750
3260.437500	21.103006
3259.616211	17.870564
3258.793945	20.921434
3257.972656	18.663239
3257.150391	16.689791
3256.329102	9.409776
3255.506836	7.017384
3254.684570	3.783853
3253.862305	10.185470
3253.039063	12.540260
3252.216797	12.241134
3251.394531	10.825080
3250.571289	18.333055
3249.748047	22.357100
3248.924805	18.712883
3248.101563	5.171865
3247.278320	-6.695373
3246.455078	-20.230379
3245.630859	-12.027058
3244.807617	-8.142509
3243.983398	-4.397623
3243.159180	-5.528606
3242.334961	-7.494261
3241.510742	-9.881836
3240.686523	3.045728
3239.861328	5.394145
3239.037109	11.636406
3238.211914	10.920918
3237.386719	4.501374
3236.561523	-0.941776
3235.736328	-2.766991
3234.911133	-5.151701
3234.084961	1.364177
3233.259766	2.319890
3232.433594	6.052594
3231.607422	9.366153
3230.781250	8.373240
3229.955078	1.966582
3229.128906	0.557743
3228.302734	-10.153787
3227.475586	-6.285987
3226.649414	-2.970663
3225.822266	4.643198
3224.995117	-0.371193
3224.167969	1.137715
3223.340820	-3.184752
3222.513672	-4.864964
3221.685547	-1.419278
3220.858398	16.170010
3220.030273	20.584841
3219.202148	25.416677
3218.374023	34.123680
3217.545898	38.388836
3216.717773	30.887280
3215.889648	32.941982
3215.060547	18.930014
3214.231445	17.240173
3213.403320	28.154812
3212.574219	39.072514
3211.745117	45.408718
3210.915039	53.826870
3210.085938	48.815506
3209.256836	49.897079
3208.426758	55.675659
3207.596680	40.988918
3206.766602	39.996620
3205.936523	28.219238
3205.106445	19.622995
3204.276367	14.622712
3203.446289	19.441475
3202.615234	22.176628
3201.784180	30.304955
3200.953125	27.243383
3200.122070	23.906132
3199.291016	18.358355
3198.459961	9.773694
3197.628906	9.616418
3196.796875	10.008953
3195.964844	7.916915
3195.133789	11.895608
3194.301758	21.942240
3193.469727	24.678493
3192.636719	23.689505
3191.804688	17.601019
3190.972656	14.266088
3190.139648	5.699597
3189.306641	4.991123
3188.473633	13.783946
3187.640625	20.512606
3186.807617	26.823830
3185.974609	24.327330
3185.140625	18.928738
3184.307617	12.156877
3183.473633	16.953444
3182.639648	14.453732
3181.805664	18.148340
3180.971680	19.769691
3180.137695	23.188635
3179.302734	17.114756
3178.468750	21.626902
3177.633789	13.352402
3176.798828	5.906286
3175.963867	4.650738
3175.128906	-6.091305
3174.293945	-11.061146
3173.458984	-1.048670
3172.623047	14.997746
3171.787109	18.137320
3170.952148	23.606569
3170.116211	15.894611
3169.280273	10.515373
3168.443359	2.805422
3167.607422	9.510781
3166.770508	5.781454
3165.934570	20.573975
3165.097656	16.025620
3164.260742	17.649340
3163.423828	14.059026
3162.586914	12.937967
3161.750000	15.791414
3160.912109	33.038330
3160.075195	38.490292
3159.237305	41.342922
3158.399414	39.261215
3157.561523	32.247581
3156.723633	25.920061
3155.885742	24.662535
3155.046875	25.186295
3154.208984	28.854036
3153.370117	33.891930
3152.531250	40.432774
3151.692383	43.278904
3150.853516	43.796925
3150.014648	33.512138
3149.174805	32.526981
3148.335938	23.886673
3147.496094	17.165071
3146.656250	28.070045
3145.816406	41.436253
3144.976563	47.282608
3144.136719	48.626026
3143.296875	47.500011
3142.456055	31.217171
3141.616211	29.280924
3140.775391	28.434280
3139.934570	27.862070
3139.093750	26.194973
3138.252930	36.678955
3137.411133	28.057262
3136.570313	32.392544
3135.728516	32.775593
3134.886719	29.612333
3134.044922	31.222046
3133.203125	36.510490
3132.361328	27.758429
3131.519531	34.956585
3130.677734	31.386084
3129.834961	34.896946
3128.992188	25.474546
3128.149414	23.407299
3127.306641	19.564133
3126.463867	20.900249
3125.621094	26.589447
3124.777344	29.700464
3123.934570	18.104031
3123.090820	19.164616
3122.247070	22.132269
3121.403320	21.699522
3120.559570	37.857468
3119.715820	48.703087
3118.872070	62.674156
3118.027344	64.686859
3117.182617	57.451908
3116.338867	38.257858
3115.494141	30.619143
3114.648438	30.862787
3113.803711	41.837402
3112.958984	49.003357
3112.113281	58.207951
3111.268555	58.312798
3110.422852	67.100357
3109.577148	66.117348
3108.731445	66.898949
3107.885742	66.866364
3107.039063	60.593914
3106.193359	59.879925
3105.346680	75.984451
3104.500000	87.472214
3103.653320	96.385635
3102.806641	113.017006
3101.959961	122.189354
3101.113281	132.716721
3100.265625	154.484009
3099.418945	185.995255
3098.571289	238.074249
3097.723633	310.997192
3096.875977	386.334534
3096.028320	471.657532
3095.180664	553.029419
3094.332031	609.750000
3093.484375	633.178406
3092.635742	621.554749
3091.787109	576.252991
3090.938477	513.122192
3090.089844	433.383820
3089.240234	354.072906
3088.391602	283.431854
3087.541992	261.193420
3086.693359	255.185349
3085.843750	259.717743
3084.994141	266.678009
3084.144531	283.897461
3083.293945	312.047424
3082.444336	369.626312
3081.593750	454.308533
3080.744141	543.425232
3079.893555	632.243225
3079.042969	701.739136
3078.192383	714.287170
3077.341797	664.786682
3076.490234	590.893005
3075.639648	484.652679
3074.788086	383.708374
3073.936523	319.998047
3073.084961	269.652374
3072.233398	231.584305
3071.381836	201.484131
3070.529297	176.643570
3069.677734	157.191544
3068.825195	159.430817
3067.972656	153.999023
3067.120117	153.549408
3066.267578	147.710922
3065.415039	138.782196
3064.562500	150.976349
3063.708984	160.079636
3062.855469	161.912384
3062.002930	163.746521
3061.149414	155.631210
3060.295898	143.881226
3059.441406	149.749649
3058.587891	146.877502
3057.734375	146.830704
3056.879883	128.650955
3056.025391	110.199234
3055.170898	98.200897
3054.316406	90.237930
3053.461914	89.662148
3052.607422	86.674171
3051.751953	68.246574
3050.896484	74.381477
3050.041992	73.809357
3049.186523	68.543037
3048.331055	68.376907
3047.474609	71.021126
3046.619141	74.869446
3045.763672	89.720436
3044.907227	89.416588
3044.050781	81.470200
3043.194336	72.050369
3042.337891	74.290894
3041.481445	77.069237
3040.625000	81.452965
3039.767578	78.605194
3038.911133	78.834770
3038.053711	75.182274
3037.196289	67.251534
3036.338867	57.580597
3035.481445	62.361485
3034.623047	60.052113
3033.765625	71.256119
3032.907227	76.306053
3032.048828	77.069893
3031.191406	72.353432
3030.332031	73.791649
3029.473633	80.433029
3028.615234	86.544792
3027.756836	83.969246
3026.897461	73.650681
3026.038086	69.735931
3025.178711	74.234886
3024.319336	90.626228
3023.459961	87.790253
3022.600586	90.553444
3021.740234	69.557343
3020.880859	58.046665
3020.020508	51.076534
3019.160156	49.709229
3018.299805	55.137775
3017.439453	64.047661
3016.578125	61.080547
3015.717773	49.182327
3014.856445	37.683689
3013.996094	30.987679
3013.134766	36.957764
3012.273438	31.730869
3011.412109	37.563412
3010.549805	43.923866
3009.688477	54.545380
3008.826172	48.392345
3007.963867	39.177868
3007.102539	41.669094
3006.239258	47.358093
3005.376953	52.252857
3004.514648	51.428677
3003.652344	36.363518
3002.789063	33.533150
3001.925781	47.732979
3001.062500	59.934937
3000.199219	66.416542
2999.335938	60.933323
2998.472656	58.902184
2997.608398	53.159267
2996.745117	56.977043
2995.880859	76.862007
2995.016602	81.743660
2994.152344	87.415405
2993.288086	80.479721
2992.423828	56.944633
2991.558594	57.569168
2990.693359	68.949829
2989.829102	62.015846
2988.963867	69.281342
2988.098633	61.684223
2987.233398	57.800140
2986.367188	62.807220
2985.501953	54.557426
2984.635742	38.751076
2983.769531	32.623455
2982.904297	33.120193
2982.038086	40.245884
2981.170898	48.165451
2980.304688	48.001183
2979.438477	44.923153
2978.571289	44.626179
2977.704102	47.507420
2976.836914	44.300488
2975.969727	51.941757
2975.102539	51.513351
2974.235352	47.116158
2973.367188	33.994072
2972.500000	34.885899
2971.631836	32.604561
2970.763672	39.057472
2969.895508	43.653599
2969.027344	41.642117
2968.158203	32.490303
2967.290039	40.653648
2966.420898	48.547268
2965.552734	50.760410
2964.683594	53.900452
2963.814453	47.398434
2962.944336	42.612503
2962.075195	35.191074
2961.206055	37.669243
2960.335938	43.707798
2959.465820	63.329723
2958.595703	71.081467
2957.725586	81.599724
2956.855469	82.484581
2955.985352	87.850670
2955.114258	97.697380
2954.243164	123.096695
2953.373047	132.276810
2952.501953	144.355164
2951.630859	158.270905
2950.758789	179.293594
2949.887695	203.471390
2949.016602	240.283173
2948.144531	276.422729
2947.272461	307.418884
2946.400391	339.326324
2945.528320	368.197845
2944.656250	407.445251
2943.783203	447.472656
2942.911133	450.937653
2942.038086	436.904297
2941.165039	402.756165
2940.291992	362.170135
2939.418945	325.683716
2938.545898	283.563385
2937.672852	239.337448
2936.798828	207.481995
2935.925781	173.012863
2935.051758	155.498215
2934.177734	143.627426
2933.303711	128.872147
2932.428711	122.664871
2931.554688	110.024536
2930.679688	88.066902
2929.805664	79.890038
2928.930664	82.085464
2928.055664	85.197510
2927.180664	82.012909
2926.304688	78.305412
2925.429688	65.159935
2924.553711	61.061703
2923.678711	44.385723
2922.802734	33.741203
2921.926758	14.588146
2921.050781	20.189060
2920.174805	19.113741
2919.297852	28.780487
2918.420898	26.266390
2917.544922	21.136738
2916.667969	16.521244
2915.791016	35.471523
2914.914063	39.499046
2914.036133	45.620598
2913.159180	37.613224
2912.281250	25.941267
2911.404297	22.383066
2910.526367	17.782843
2909.648438	21.021584
2908.769531	25.570324
2907.891602	23.713835
2907.013672	23.166498
2906.134766	23.922750
2905.255859	22.456356
2904.376953	35.227547
2903.498047	47.079254
2902.619141	42.222504
2901.740234	34.361092
2900.860352	22.979326
2899.981445	13.424788
2899.101563	16.268047
2898.221680	23.549608
2897.341797	22.217319
2896.461914	15.675414
2895.581055	11.996975
2894.701172	11.057598
2893.820313	15.203825
2892.939453	19.088465
2892.058594	16.851076
2891.177734	7.312977
2890.296875	0.517992
2889.416016	1.403804
2888.534180	-5.125819
2887.652344	10.861385
2886.771484	23.460732
2885.889648	30.075552
2885.006836	24.455359
2884.125000	24.040113
2883.243164	20.101196
2882.360352	27.622425
2881.477539	22.530081
2880.595703	18.601883
2879.712891	14.542093
2878.829102	15.295509
2877.946289	20.863890
2877.063477	17.331238
2876.179688	14.182561
2875.295898	6.108787
2874.413086	11.408419
2873.529297	15.020126
2872.644531	17.979919
2871.760742	18.994394
2870.876953	27.407290
2869.992188	17.904387
2869.107422	14.898260
2868.222656	10.721434
2867.337891	6.288578
2866.453125	3.799584
2865.568359	10.260769
2864.682617	23.458162
2863.797852	32.375004
2862.912109	34.814095
2862.026367	30.121519
2861.140625	17.140137
2860.253906	6.232246
2859.368164	7.503976
2858.482422	10.071071
2857.595703	13.801103
2856.708984	20.251242
2855.822266	17.249279
2854.935547	15.025132
2854.048828	16.293585
2853.161133	13.681609
2852.274414	12.882497
2851.386719	10.661146
2850.499023	7.792229
2849.611328	5.183673
2848.723633	15.500579
2847.835938	23.617853
2846.947266	25.662683
2846.059570	29.641594
2845.170898	28.452967
2844.282227	23.646101
2843.393555	26.849504
2842.504883	13.659614
2841.616211	15.178998
2840.726563	21.608452
2839.837891	28.035494
2838.948242	34.076035
2838.058594	31.860426
2837.168945	16.478607
2836.279297	11.944429
2835.388672	12.562325
2834.499023	10.736037
2833.608398	16.900171
2832.717773	21.514730
2831.827148	22.652746
2830.936523	24.298895
2830.045898	20.156549
2829.155273	4.546507
2828.263672	1.175453
2827.372070	2.053715
2826.480469	-0.672285
2825.588867	-0.042920
2824.697266	2.247626
2823.805664	-5.493763
2822.914063	-5.899654
2822.021484	-11.446776
2821.128906	-9.539412
2820.236328	-9.948285
2819.343750	5.721382
2818.451172	9.169998
2817.558594	9.921916
2816.665039	0.773294
2815.772461	-1.687704
2814.878906	-2.352830
2813.985352	-3.399713
2813.091797	-6.371504
2812.198242	-8.960129
2811.304688	-11.803802
2810.410156	-12.208628
2809.515625	-4.269654
2808.622070	-3.390555
2807.727539	-7.001899
2806.833008	-7.020666
2805.937500	-5.375030
2805.042969	-3.471121
2804.147461	-0.667306
2803.252930	3.670080
2802.357422	5.442071
2801.461914	7.983429
2800.566406	4.121790
2799.669922	-5.506294
2798.774414	-9.372840
2797.877930	-8.751406
2796.982422	-7.872584
2796.085938	-8.400222
2795.189453	-12.644761
2794.291992	-11.130079
2793.395508	-4.620034
2792.499023	3.804246
2791.601563	2.378980
2790.704102	-5.826510
2789.806641	-7.382354
2788.909180	-11.874947
2788.011719	-13.556425
2787.114258	-6.414460
2786.215820	-3.878204
2785.317383	-2.874767
2784.419922	8.221508
2783.521484	13.562903
2782.622070	13.798528
2781.723633	8.032141
2780.825195	-2.457891
2779.925781	-20.222273
2779.026367	-28.662479
2778.127930	-25.997974
2777.228516	-15.043583
2776.328125	-8.168930
2775.428711	-1.678826
2774.529297	8.755754
2773.628906	8.480009
2772.728516	6.293516
2771.828125	9.206955
2770.927734	2.555899
2770.027344	-9.696489
2769.126953	-3.597815
2768.225586	-12.404992
2767.324219	-11.660882
2766.423828	-6.456777
2765.522461	-1.253219
2764.621094	-5.982964
2763.718750	-3.326018
2762.817383	-16.961641
2761.915039	-7.056460
2761.013672	-2.876160
2760.111328	1.558840
2759.208984	-3.417000
2758.305664	1.521498
2757.403320	-9.941734
2756.500977	2.626667
2755.597656	13.916841
2754.694336	19.361694
2753.791016	11.462845
2752.887695	6.111193
2751.984375	-13.218531
2751.081055	-18.824482
2750.176758	-15.030348
2749.272461	-6.414756
2748.369141	-1.735012
2747.464844	-2.513185
2746.560547	-9.762411
2745.655273	-6.357860
2744.750977	-5.995847
2743.845703	-5.882767
2742.941406	-3.110657
2742.036133	-2.495622
2741.130859	-1.122941
2740.224609	6.087567
2739.319336	6.195875
2738.414063	1.866608
2737.507813	1.215103
2736.601563	5.247879
2735.695313	12.320892
2734.789063	4.326112
2733.882813	-2.781843
2732.976563	-10.522107
2732.069336	-18.387253
2731.162109	-14.479769
2730.255859	-4.500017
2729.348633	-9.196385
2728.440430	-3.648281
2727.533203	3.667252
2726.625977	7.061473
2725.717773	7.044954
2724.809570	9.049567
2723.901367	-3.987675
2722.993164	-0.469514
2722.084961	4.313920
2721.176758	10.106066
2720.267578	8.193555
2719.359375	14.361033
2718.450195	9.162417
2717.541016	4.476113
2716.631836	-2.358005
2715.722656	-3.638582
2714.812500	-5.803138
2713.903320	5.155996
2712.993164	9.049480
2712.083008	5.625381
2711.172852	2.454589
2710.262695	1.049496
2709.352539	4.936285
2708.441406	7.692483
2707.531250	1.124401
2706.620117	5.135017
2705.708984	5.996810
2704.797852	3.586062
2703.886719	2.690401
2702.974609	-2.238563
2702.063477	-9.813188
2701.151367	-7.560398
2700.239258	-1.411021
2699.327148	0.081903
2698.415039	1.447395
2697.502930	2.060243
2696.589844	4.682999
2695.677734	-2.251191
2694.764648	-0.381802
2693.851563	-1.154464
2692.938477	-3.558524
2692.025391	-9.732381
2691.111328	-14.268615
2690.198242	-14.288157
2689.284180	-14.050463
2688.370117	-9.543260
2687.456055	-1.649954
2686.541992	3.981641
2685.627930	1.830742
2684.713867	9.595531
2683.798828	4.933245
2682.883789	4.035584
2681.968750	7.279257
2681.053711	-2.141216
2680.138672	-14.697898
2679.223633	-13.210216
2678.307617	-11.848249
2677.392578	-0.332921
2676.476563	10.430487
2675.560547	9.408743
2674.644531	7.635327
2673.728516	7.116922
2672.811523	-0.664744
2671.895508	0.444242
2670.978516	-0.324688
2670.061523	-1.342026
2669.144531	1.395035
2668.227539	5.256247
2667.310547	1.985413
2666.392578	7.848014
2665.475586	10.081583
2664.557617	15.937631
2663.639648	21.169537
2662.721680	19.152697
2661.803711	9.509212
2660.884766	8.364333
2659.966797	9.092466
2659.047852	15.822105
2658.128906	20.551105
2657.209961	15.536365
2656.291016	10.021716
2655.372070	15.369465
2654.452148	17.847748
2653.532227	14.585856
2652.613281	23.797745
2651.693359	20.408720
2650.773438	13.778819
2649.852539	17.003265
2648.932617	11.122298
2648.012695	1.501736
2647.091797	16.443863
2646.170898	11.316105
2645.250000	7.682547
2644.329102	8.040107
2643.408203	-1.694345
2642.486328	-3.956593
2641.565430	7.113577
2640.643555	12.073493
2639.721680	14.548908
2638.799805	20.131010
2637.877930	13.638556
2636.955078	19.341873
2636.033203	17.083603
2635.110352	12.464863
2634.187500	-2.106153
2633.264648	3.222240
2632.341797	5.191407
2631.418945	19.721148
2630.495117	21.817507
2629.572266	18.567085
2628.648438	18.790539
2627.724609	21.133648
2626.800781	20.741337
2625.876953	21.840658
2624.952148	17.473061
2624.028320	16.333843
2623.103516	15.946607
2622.178711	15.925025
2621.253906	18.138664
2620.329102	15.639193
2619.404297	18.720705
2618.478516	23.042540
2617.553711	15.085065
2616.627930	21.141165
2615.702148	18.519644
2614.776367	12.920605
2613.850586	14.513449
2612.923828	20.193539
2611.998047	17.199417
2611.071289	18.794249
2610.144531	19.886078
2609.217773	14.666648
2608.291016	16.750793
2607.364258	23.045652
2606.436523	22.159166
2605.508789	21.519129
2604.582031	24.223801
2603.654297	18.263575
2602.726563	29.002708
2601.797852	37.144054
2600.870117	45.157848
2599.941406	42.788910
2599.013672	33.989014
2598.084961	23.706135
2597.156250	21.214685
2596.227539	23.292128
2595.297852	22.287800
2594.369141	17.449682
2593.439453	17.305460
2592.509766	16.297787
2591.580078	14.056546
2590.650391	17.002237
2589.720703	16.608891
2588.791016	19.056469
2587.860352	15.215487
2586.929688	6.440496
2585.999023	3.829120
2585.068359	1.466978
2584.137695	4.903766
2583.207031	11.296756
2582.275391	4.993591
2581.344727	0.168598
2580.413086	8.406116
2579.481445	17.378218
2578.549805	23.640457
2577.618164	27.933559
2576.685547	22.247332
2575.752930	15.085158
2574.821289	10.511249
2573.888672	9.754699
2572.956055	7.029253
2572.023438	7.993512
2571.089844	4.533567
2570.157227	10.047809
2569.223633	13.839783
2568.290039	8.536637
2567.356445	-0.576836
2566.422852	-4.526823
2565.489258	-6.884063
2564.554688	3.176258
2563.621094	10.778849
2562.686523	22.424608
2561.751953	25.227659
2560.817383	17.351330
2559.882813	10.458675
2558.947266	5.894528
2558.012695	-1.122117
2557.077148	16.039721
2556.141602	20.317112
2555.206055	17.719505
2554.270508	11.566965
2553.333984	5.050441
2552.398438	2.697689
2551.461914	7.095179
2550.525391	5.605291
2549.589844	9.754075
2548.652344	11.939078
2547.715820	6.773371
2546.779297	0.634685
2545.841797	-7.834253
2544.904297	-10.669955
2543.966797	-9.094972
2543.029297	0.437435
2542.091797	6.784550
2541.154297	4.807409
2540.215820	9.680999
2539.278320	7.706303
2538.339844	5.117600
2537.401367	4.364781
2536.462891	-3.599440
2535.523438	-7.775204
2534.584961	-7.912552
2533.645508	-8.787446
2532.706055	-4.526865
2531.766602	-0.877485
2530.827148	1.789068
2529.887695	7.510801
2528.948242	3.096568
2528.007813	0.271584
2527.067383	-0.602971
2526.126953	4.988739
2525.186523	10.950724
2524.246094	9.958517
2523.305664	5.179861
2522.364258	-0.695783
2521.423828	2.210134
2520.482422	11.702901
2519.541016	13.390509
2518.599609	13.124198
2517.657227	8.352131
2516.715820	-4.217128
2515.773438	-5.211792
2514.831055	-1.699606
2513.889648	-0.135460
2512.946289	0.215646
2512.003906	-3.090533
2511.061523	-7.130235
2510.118164	-2.888528
2509.175781	4.030122
2508.232422	4.377749
2507.289063	5.571608
2506.344727	6.403121
2505.401367	14.407441
2504.458008	15.845944
2503.513672	15.095592
2502.569336	4.863347
2501.625000	-4.148309
2500.680664	-8.788527
2499.736328	-5.890485
2498.791016	-6.516016
2497.846680	-6.774743
2496.901367	-1.210060
2495.956055	8.357085
2495.010742	13.195751
2494.064453	12.327246
2493.119141	11.939192
2492.172852	5.604738
2491.227539	4.614886
2490.281250	13.570632
2489.334961	6.514845
2488.388672	9.885026
2487.441406	11.805814
2486.495117	13.116611
2485.547852	12.486317
2484.600586	12.587819
2483.653320	8.443655
2482.706055	16.174629
2481.758789	15.180460
2480.810547	9.106493
2479.863281	5.331942
2478.915039	3.974509
2477.966797	4.920741
2477.018555	15.548427
2476.070313	21.697824
2475.121094	15.623636
2474.172852	5.320436
2473.223633	3.604227
2472.274414	-2.949251
2471.325195	-4.419436
2470.375977	-6.977334
2469.425781	-8.326982
2468.476563	-12.216464
2467.526367	-9.455742
2466.576172	-9.595570
2465.625977	-5.752479
2464.675781	-5.169116
2463.725586	1.691186
2462.774414	9.515366
2461.824219	12.026819
2460.873047	7.659391
2459.921875	1.485312
2458.970703	-1.315837
2458.018555	6.258739
2457.067383	15.642534
2456.115234	14.175294
2455.164063	6.797729
2454.211914	0.862919
2453.259766	-0.485585
2452.306641	10.335670
2451.354492	16.217607
2450.401367	10.411148
2449.449219	10.263852
2448.496094	10.721692
2447.542969	11.536236
2446.588867	12.237849
2445.635742	7.759209
2444.682617	-4.419841
2443.728516	-3.000000
2442.774414	4.551613
2441.820313	4.292799
2440.866211	0.420762
2439.912109	4.844192
2438.957031	-1.554281
2438.001953	5.994202
2437.047852	13.905610
2436.092773	0.661114
2435.137695	-4.050047
2434.181641	-1.070328
2433.226563	0.824059
2432.270508	8.967735
2431.315430	9.784928
2430.359375	6.395768
2429.403320	6.969093
2428.446289	5.263645
2427.490234	5.119530
2426.533203	6.772767
2425.577148	6.145600
2424.620117	9.717472
2423.663086	13.528605
2422.705078	7.867680
2421.748047	-0.669568
2420.791016	-3.452722
2419.833008	-9.469672
2418.875000	-15.243151
2417.916992	-16.822491
2416.958984	-16.248844
2416.000977	-9.089823
2415.041992	-7.552921
2414.083008	-7.456725
2413.125000	-7.484150
2412.166016	-6.673248
2411.207031	-7.892132
2410.248047	5.002966
2409.287109	3.658275
2408.328125	1.241143
2407.369141	5.997486
2406.408203	6.807052
2405.449219	8.686175
2404.488281	11.053564
2403.527344	1.826451
2402.568359	-6.925634
2401.607422	0.689436
2400.646484	2.215450
2399.685547	18.072924
2398.724609	16.611284
2397.761719	10.491741
2396.800781	12.011013
2395.839844	13.535649
2394.876953	6.345098
2393.916016	6.914668
2392.953125	4.616722
2391.992188	6.255397
2391.029297	7.660815
2390.066406	5.008163
2389.103516	6.168794
2388.140625	-0.653070
2387.177734	-0.442765
2386.214844	9.296276
2385.251953	10.693767
2384.287109	4.831034
2383.324219	1.707898
2382.359375	-0.114290
2381.396484	-1.574092
2380.431641	-3.858071
2379.466797	-3.409719
2378.503906	-1.898375
2377.539063	-0.263059
2376.574219	18.621876
2375.609375	16.928453
2374.644531	6.903822
2373.677734	-6.798155
2372.712891	-6.710212
2371.748047	-12.447040
2370.781250	-10.094187
2369.816406	-3.355497
2368.849609	-0.055648
2367.882813	0.148295
2366.917969	9.262887
2365.951172	9.111670
2364.984375	4.209701
2364.017578	1.927674
2363.050781	-2.025411
2362.082031	-2.293548
2361.115234	-0.188619
2360.148438	6.420911
2359.179688	2.003366
2358.212891	-9.412864
2357.244141	3.239489
2356.277344	9.250029
2355.308594	14.432894
2354.339844	20.802441
2353.371094	18.275215
2352.402344	14.325480
2351.433594	14.413680
2350.464844	8.340323
2349.496094	6.763354
2348.525391	5.779373
2347.556641	8.350891
2346.585938	7.727661
2345.617188	-2.721036
2344.646484	-13.758113
2343.675781	-11.779931
2342.707031	-10.392368
2341.736328	-4.867464
2340.765625	-1.825746
2339.794922	-1.385713
2338.824219	4.131848
2337.851563	13.195910
2336.880859	11.152036
2335.910156	7.928988
2334.937500	10.959474
2333.966797	6.197312
2332.994141	9.469198
2332.021484	12.739509
2331.048828	10.103029
2330.078125	1.920883
2329.105469	-4.481444
2328.132813	-11.008870
2327.158203	-17.177500
2326.185547	-13.320294
2325.212891	-3.566032
2324.240234	1.115577
2323.265625	1.312472
2322.292969	1.043153
2321.318359	-4.062688
2320.343750	0.493862
2319.371094	-1.897889
2318.396484	-5.349904
2317.421875	-4.208757
2316.447266	-15.784800
2315.472656	-19.117567
2314.496094	-19.384472
2313.521484	-16.245077
2312.546875	-4.986174
2311.570313	7.567748
2310.595703	10.351377
2309.619141	12.664413
2308.644531	-3.485576
2307.667969	-6.347356
2306.691406	-8.148864
2305.714844	-7.482321
2304.738281	-3.758680
2303.761719	5.720500
2302.785156	4.033619
2301.808594	17.147381
2300.830078	15.580079
2299.853516	4.386436
2298.875000	-2.818046
2297.898438	-3.212512
2296.919922	-3.841284
2295.941406	4.102252
2294.962891	-1.216467
2293.986328	-9.237117
2293.007813	-13.849803
2292.029297	-12.130157
2291.048828	-4.901550
2290.070313	-0.486478
2289.091797	-1.230452
2288.111328	-0.684386
2287.132813	-6.351558
2286.152344	-3.699624
2285.173828	8.204970
2284.193359	12.612706
2283.212891	10.696842
2282.232422	3.980800
2281.251953	-3.088048
2280.271484	-1.026762
2279.291016	3.964112
2278.310547	7.781715
2277.330078	10.310002
2276.347656	5.236140
2275.367188	1.215521
2274.384766	-1.516488
2273.402344	-6.588396
2272.421875	-7.917394
2271.439453	-6.323261
2270.457031	-8.352842
2269.474609	-0.454716
2268.492188	-1.782507
2267.509766	-6.262180
2266.527344	-2.805876
2265.542969	-1.334085
2264.560547	1.420351
2263.576172	5.347775
2262.593750	-7.998767
2261.609375	-7.583470
2260.626953	1.003052
2259.642578	2.475236
2258.658203	9.077501
2257.673828	2.035969
2256.689453	-1.747796
2255.705078	10.211420
2254.720703	12.845288
2253.734375	6.156439
2252.750000	7.389031
2251.763672	-1.631012
2250.779297	0.534882
2249.792969	2.701466
2248.808594	5.096910
2247.822266	11.562822
2246.835938	19.777863
2245.849609	15.539667
2244.863281	10.719484
2243.876953	6.943458
2242.890625	11.425973
2241.902344	15.332359
2240.916016	16.561022
2239.927734	11.509072
2238.941406	1.810786
2237.953125	-1.842034
2236.964844	4.962402
2235.978516	0.961978
2234.990234	6.254410
2234.001953	8.062659
2233.013672	2.900918
2232.025391	0.991428
2231.035156	6.164174
2230.046875	-1.779935
2229.058594	-2.293433
2228.068359	-0.606227
2227.080078	-2.398073
2226.089844	-0.941687
2225.099609	1.327924
2224.111328	-2.204789
2223.121094	-10.717542
2222.130859	-9.609012
2221.140625	-8.503434
2220.150391	-2.762001
2219.158203	4.715453
2218.167969	6.170964
2217.177734	0.903337
2216.185547	0.848734
2215.195313	-4.876202
2214.203125	0.508552
2213.210938	6.357331
2212.220703	1.443019
2211.228516	1.273406
2210.236328	2.027763
2209.244141	-9.940944
2208.251953	-10.338891
2207.257813	-6.231645
2206.265625	-8.367972
2205.273438	-2.990136
2204.279297	-4.311986
2203.287109	-10.030746
2202.292969	-17.017019
2201.298828	-17.415354
2200.306641	-7.772897
2199.312500	0.487756
2198.318359	-2.338228
2197.324219	1.645666
2196.330078	-7.875107
2195.333984	-16.817787
2194.339844	-11.679117
2193.345703	-9.083490
2192.349609	-5.796536
2191.355469	2.912192
2190.359375	-8.787255
2189.363281	-10.345605
2188.367188	-9.482352
2187.373047	-5.276075
2186.376953	3.307623
2185.380859	3.943446
2184.382813	-9.248926
2183.386719	-10.917943
2182.390625	-3.035415
2181.392578	4.272839
2180.396484	10.317064
2179.398438	8.644940
2178.402344	5.013905
2177.404297	-2.987093
2176.406250	-0.745079
2175.408203	-8.624007
2174.410156	-11.100913
2173.412109	-6.333557
2172.414063	1.078986
2171.416016	3.891660
2170.417969	9.116060
2169.417969	2.157278
2168.419922	-7.437079
2167.419922	-7.844260
2166.419922	-8.710532
2165.421875	-5.902534
2164.421875	1.155964
2163.421875	12.110441
2162.421875	11.469580
2161.421875	8.769451
2160.421875	2.738679
2159.419922	-1.227617
2158.419922	-8.403413
2157.419922	-2.731020
2156.417969	3.510425
2155.417969	2.527388
2154.416016	3.036728
2153.414063	5.378829
2152.412109	6.341090
2151.410156	7.076664
2150.408203	2.891048
2149.406250	2.708908
2148.404297	6.989915
2147.402344	10.586366
2146.400391	18.075468
2145.396484	21.668989
2144.394531	14.845540
2143.390625	15.233442
2142.386719	8.876469
2141.384766	2.287067
2140.380859	-2.584225
2139.376953	-5.280288
2138.373047	-4.090748
2137.369141	-3.012586
2136.363281	-8.108575
2135.359375	4.503793
2134.355469	12.430809
2133.349609	15.331148
2132.345703	16.061916
2131.339844	4.230912
2130.333984	0.616487
2129.330078	6.825458
2128.324219	7.782973
2127.318359	5.545784
2126.312500	-0.342227
2125.306641	-6.005447
2124.298828	1.679744
2123.292969	1.155053
2122.287109	0.856739
2121.279297	-6.850031
2120.273438	-10.000553
2119.265625	-10.981407
2118.257813	-4.328201
2117.251953	-1.210816
2116.244141	2.477894
2115.236328	0.924154
2114.228516	6.658620
2113.218750	6.469474
2112.210938	-2.591612
2111.203125	-4.258153
2110.193359	-5.357097
2109.185547	-3.838461
2108.175781	-3.224930
2107.167969	0.115205
2106.158203	-8.376233
2105.148438	-9.811780
2104.138672	-4.656371
2103.128906	-2.341554
2102.119141	0.763543
2101.109375	9.664401
2100.099609	6.296581
2099.087891	3.606860
2098.078125	2.736734
2097.066406	-1.655810
2096.056641	-1.956830
2095.044922	0.239308
2094.033203	-0.293559
2093.021484	4.963766
2092.011719	10.784998
2091.000000	10.595804
2089.986328	9.382435
2088.974609	8.509174
2087.962891	7.071170
2086.951172	12.544346
2085.937500	12.921080
2084.925781	8.534804
2083.912109	10.041346
2082.898438	9.508428
2081.884766	9.200410
2080.871094	16.935820
2079.859375	13.344319
2078.843750	12.696390
2077.830078	5.261104
2076.816406	-0.365266
2075.802734	-1.237988
2074.787109	1.171599
2073.773438	5.954293
2072.757813	13.112892
2071.744141	8.281212
2070.728516	3.339673
2069.712891	-1.715038
2068.697266	-3.493012
2067.681641	-1.652407
2066.666016	-0.149979
2065.650391	-3.053737
2064.634766	-3.362046
2063.617188	4.796352
2062.601563	4.491469
2061.583984	1.250737
2060.568359	2.520281
2059.550781	-1.852751
2058.533203	-1.709330
2057.515625	1.822677
2056.498047	-1.196122
2055.480469	-4.663646
2054.462891	-2.376036
2053.445313	-3.247952
2052.427734	1.739377
2051.408203	4.246330
2050.390625	13.176666
2049.371094	14.781105
2048.353516	7.486725
2047.333984	0.079461
2046.314453	0.556145
2045.294922	-4.932539
2044.275391	-1.526639
2043.255859	4.577741
2042.236328	4.603303
2041.216797	6.767135
2040.195313	4.883693
2039.175781	-2.628451
2038.156250	-4.514928
2037.134766	-2.576715
2036.113281	-4.910312
2035.091797	-6.343264
2034.072266	-8.678885
2033.050781	-8.315488
2032.029297	-2.897300
2031.007813	0.723918
2029.984375	0.299616
2028.962891	-1.023934
2027.941406	0.010713
2026.917969	-0.414771
2025.896484	5.220520
2024.873047	6.029042
2023.849609	3.696418
2022.828125	1.475216
2021.804688	-0.858065
2020.781250	-9.692582
2019.757813	-6.417983
2018.732422	-5.049394
2017.708984	1.696414
2016.685547	4.522316
2015.662109	4.097762
2014.636719	-1.037458
2013.611328	2.455833
2012.587891	-0.770868
2011.562500	2.947435
2010.537109	0.056504
2009.511719	-1.043713
2008.486328	1.438883
2007.460938	1.684851
2006.435547	-3.553536
2005.410156	-4.204317
2004.382813	2.411607
2003.357422	9.922978
2002.330078	12.180271
2001.304688	11.861990
2000.277344	6.177860
1999.250000	2.282174
1998.222656	-3.840692
1997.195313	-2.594591
1996.167969	-3.918520
1995.140625	-1.218880
1994.113281	-2.315785
1993.083984	-0.845738
1992.056641	-11.769023
1991.029297	-12.418462
1990.000000	-16.861698
1988.970703	-17.400259
1987.943359	-12.809473
1986.914063	0.703535
1985.884766	6.853504
1984.855469	7.429069
1983.826172	2.092477
1982.794922	-5.694527
1981.765625	-7.462638
1980.736328	-4.659613
1979.705078	-0.967674
1978.675781	-0.061482
1977.644531	0.956890
1976.613281	2.750913
1975.583984	0.317420
1974.552734	-2.562593
1973.521484	-5.106757
1972.490234	-4.648765
1971.457031	-6.636440
1970.425781	1.275800
1969.394531	-2.824712
1968.361328	-0.143167
1967.330078	-3.243071
1966.296875	-1.672964
1965.265625	-4.439647
1964.232422	-4.645740
1963.199219	-2.859163
1962.166016	-1.510627
1961.132813	-0.499576
1960.099609	6.951502
1959.066406	6.297245
1958.031250	4.862927
1956.998047	3.989087
1955.962891	-3.770892
1954.929688	-7.199212
1953.894531	-0.864134
1952.861328	1.363824
1951.826172	5.258194
1950.791016	8.813941
1949.755859	6.163831
1948.720703	5.616276
1947.685547	4.075497
1946.648438	4.305090
1945.613281	1.100527
1944.576172	8.531204
1943.541016	4.440859
1942.503906	6.333198
1941.468750	2.796587
1940.431641	0.923738
1939.394531	-1.504710
1938.357422	-0.276611
1937.320313	-1.265715
1936.283203	2.834849
1935.244141	7.266319
1934.207031	4.951663
1933.169922	0.979712
1932.130859	-2.773972
1931.093750	-0.889366
1930.054688	2.875572
1929.015625	5.535891
1927.976563	0.018930
1926.937500	-6.382326
1925.898438	-5.713866
1924.859375	-1.179441
1923.820313	7.658511
1922.781250	17.045305
1921.740234	6.678051
1920.701172	-2.476442
1919.660156	-7.989157
1918.621094	-10.191665
1917.580078	0.622850
1916.539063	9.013800
1915.498047	3.282898
1914.457031	5.710798
1913.416016	7.366290
1912.375000	2.962461
1911.333984	3.408707
1910.291016	-7.824098
1909.250000	-11.236631
1908.207031	-1.872449
1907.166016	-3.845678
1906.123047	-2.191209
1905.080078	-0.315094
1904.037109	2.764935
1902.994141	11.900503
1901.951172	16.747478
1900.908203	5.195467
1899.865234	-7.008492
1898.820313	-16.685642
1897.777344	-18.439238
1896.734375	-10.739875
1895.689453	-0.625456
1894.644531	4.654691
1893.599609	9.707073
1892.556641	6.854111
1891.511719	1.250633
1890.466797	-2.810832
1889.419922	-4.236031
1888.375000	-1.054913
1887.330078	8.388221
1886.285156	2.352725
1885.238281	-1.484979
1884.191406	-5.984845
1883.146484	-3.464829
1882.099609	0.597247
1881.052734	3.998492
1880.005859	3.557908
1878.958984	1.582577
1877.912109	2.239815
1876.865234	5.966403
1875.818359	1.142942
1874.769531	-5.100688
1873.722656	-5.210980
1872.673828	-2.913224
1871.626953	-3.132289
1870.578125	-6.413856
1869.529297	-3.898085
1868.480469	-4.667556
1867.431641	-1.712869
1866.382813	10.537800
1865.333984	9.442377
1864.283203	-0.622496
1863.234375	-4.887501
1862.185547	-7.842879
1861.134766	-7.300574
1860.083984	1.335462
1859.035156	0.132211
1857.984375	0.018900
1856.933594	-3.043112
1855.882813	-7.849082
1854.832031	0.445673
1853.781250	2.407757
1852.730469	-3.597655
1851.677734	-2.834795
1850.626953	-3.493840
1849.574219	1.952669
1848.523438	12.644449
1847.470703	20.165142
1846.417969	13.505744
1845.365234	2.924235
1844.312500	-6.783989
1843.259766	-3.408922
1842.207031	-3.197173
1841.154297	7.479232
1840.099609	9.327573
1839.046875	6.162528
1837.992188	4.303650
1836.939453	4.298775
1835.884766	6.578219
1834.830078	7.988676
1833.777344	4.499797
1832.722656	-0.076389
1831.667969	-1.170302
1830.611328	-5.635823
1829.556641	-0.855382
1828.501953	-5.317106
1827.445313	-2.496871
1826.390625	-5.545326
1825.333984	-7.070472
1824.279297	-1.536587
1823.222656	2.589304
1822.166016	1.494671
1821.109375	6.595959
1820.052734	0.506922
1818.996094	-1.673242
1817.939453	12.541187
1816.880859	8.518661
1815.824219	13.828521
1814.765625	13.603087
1813.708984	2.636724
1812.650391	0.024656
1811.591797	12.055965
1810.533203	8.466431
1809.476563	10.305374
1808.417969	9.321857
1807.357422	4.865233
1806.298828	3.122397
1805.240234	4.417902
1804.179688	-5.446436
1803.121094	-11.738431
1802.060547	-20.947622
1801.001953	-12.076015
1799.941406	-8.183263
1798.880859	-4.940992
1797.820313	-3.866475
1796.759766	1.645683
1795.699219	0.335060
1794.638672	7.253095
1793.576172	3.783114
1792.515625	-4.442653
1791.455078	-9.100144
1790.392578	-7.055515
1789.330078	-2.306760
1788.269531	0.171809
1787.207031	1.029015
1786.144531	-3.193601
1785.082031	-1.043630
1784.019531	1.972368
1782.955078	-2.784269
1781.892578	1.523172
1780.830078	6.153796
1779.765625	13.264671
1778.703125	15.092506
1777.638672	15.512731
1776.574219	5.359780
1775.509766	7.290438
1774.445313	6.202168
1773.380859	7.487792
1772.316406	5.965671
1771.251953	6.927386
1770.187500	11.978392
1769.121094	15.632322
1768.056641	18.312794
1766.990234	19.053986
1765.925781	19.042486
1764.859375	15.905611
1763.792969	17.402376
1762.726563	12.008167
1761.660156	14.256449
1760.593750	24.678076
1759.527344	30.581869
1758.458984	40.678581
1757.392578	47.544960
1756.326172	47.527527
1755.257813	58.364117
1754.189453	71.996796
1753.123047	83.256195
1752.054688	86.029160
1750.986328	77.090965
1749.917969	60.524300
1748.849609	50.623173
1747.779297	35.678692
1746.710938	33.409557
1745.642578	28.777300
1744.572266	24.146700
1743.503906	18.232958
1742.433594	16.289076
1741.363281	14.235216
1740.292969	12.079284
1739.222656	17.321081
1738.152344	21.382713
1737.082031	22.331882
1736.011719	20.819260
1734.941406	15.664711
1733.869141	9.969853
1732.798828	13.491681
1731.726563	16.477871
1730.656250	16.040352
1729.583984	11.637798
1728.511719	6.805364
1727.439453	7.756747
1726.367188	15.663551
1725.294922	15.332433
1724.222656	3.660227
1723.148438	-4.266862
1722.076172	-7.914772
1721.001953	-8.887052
1719.929688	3.292943
1718.855469	7.986598
1717.781250	11.073106
1716.707031	12.451422
1715.632813	12.119320
1714.558594	12.638906
1713.484375	18.073427
1712.410156	14.217379
1711.335938	16.233696
1710.259766	13.337351
1709.185547	4.040281
1708.109375	2.322007
1707.033203	3.805005
1705.958984	4.324583
1704.882813	6.769822
1703.806641	8.573548
1702.730469	10.051131
1701.652344	13.343814
1700.576172	11.415466
1699.500000	13.216414
1698.421875	11.390448
1697.345703	13.293941
1696.267578	14.137980
1695.189453	18.385603
1694.113281	21.882679
1693.035156	20.061592
1691.957031	19.304966
1690.878906	22.909967
1689.800781	20.125803
1688.720703	16.924208
1687.642578	18.297951
1686.562500	24.766777
1685.484375	27.092758
1684.404297	40.263474
1683.326172	46.097511
1682.246094	41.826977
1681.166016	39.151413
1680.085938	42.857403
1679.005859	36.890137
1677.923828	41.230099
1676.843750	44.185482
1675.763672	47.991707
1674.681641	49.462646
1673.601563	51.247818
1672.519531	39.876556
1671.437500	30.523941
1670.355469	26.796080
1669.275391	29.114262
1668.193359	44.263229
1667.109375	69.804070
1666.027344	75.829033
1664.945313	77.505417
1663.861328	73.456100
1662.779297	71.524422
1661.695313	76.695381
1660.613281	89.280479
1659.529297	91.905846
1658.445313	96.012741
1657.361328	99.693398
1656.277344	108.454315
1655.193359	124.830276
1654.109375	133.801666
1653.023438	144.033951
1651.939453	157.013184
1650.853516	177.600891
1649.769531	195.437271
1648.683594	219.403397
1647.597656	236.058472
1646.511719	257.151062
1645.425781	273.059753
1644.339844	295.832520
1643.253906	311.832336
1642.167969	338.176025
1641.082031	357.971619
1639.994141	380.184875
1638.908203	388.349701
1637.820313	401.364166
1636.732422	399.286987
1635.644531	407.550995
1634.556641	399.772430
1633.468750	410.140503
1632.380859	413.754913
1631.292969	420.011444
1630.205078	416.031555
1629.117188	421.226166
1628.027344	422.619995
1626.937500	415.384186
1625.849609	408.038879
1624.759766	400.585938
1623.669922	395.454620
1622.580078	385.382507
1621.490234	386.577972
1620.400391	376.395233
1619.310547	372.221832
1618.220703	375.206879
1617.128906	363.253998
1616.039063	346.562164
1614.947266	344.710480
1613.855469	353.692657
1612.765625	373.399902
1611.673828	436.519775
1610.582031	543.232056
1609.490234	694.478760
1608.398438	901.990173
1607.304688	1081.917358
1606.212891	1160.946777
1605.119141	1096.175659
1604.027344	907.292542
1602.933594	641.595093
1601.841797	425.535645
1600.748047	269.693085
1599.654297	200.798737
1598.560547	177.570831
1597.466797	174.289108
1596.373047	153.495483
1595.277344	128.721176
1594.183594	96.606049
1593.087891	81.382294
1591.994141	75.706871
1590.898438	74.856354
1589.802734	63.734318
1588.708984	61.832825
1587.613281	56.688641
1586.517578	55.107368
1585.419922	58.130577
1584.324219	52.258797
1583.228516	49.630009
1582.130859	56.528500
1581.035156	58.713287
1579.937500	66.548538
1578.841797	79.510605
1577.744141	85.036293
1576.646484	86.487373
1575.548828	88.354332
1574.451172	87.501015
1573.353516	77.766899
1572.253906	64.169556
1571.156250	61.022678
1570.058594	47.430183
1568.958984	39.694462
1567.859375	41.359005
1566.761719	32.894974
1565.662109	23.911783
1564.562500	32.675728
1563.462891	29.749186
1562.363281	34.124935
1561.263672	33.499245
1560.162109	22.439133
1559.062500	14.611654
1557.960938	18.989973
1556.861328	18.152897
1555.759766	26.702803
1554.658203	22.532381
1553.556641	23.881945
1552.457031	18.881535
1551.353516	20.442896
1550.251953	13.257295
1549.150391	11.695000
1548.048828	10.444151
1546.945313	14.092165
1545.843750	10.240870
1544.740234	13.990817
1543.636719	12.949004
1542.535156	17.736101
1541.431641	19.299461
1540.328125	18.572252
1539.222656	18.261021
1538.119141	20.963760
1537.015625	20.862581
1535.912109	17.748642
1534.806641	22.006643
1533.703125	16.919670
1532.597656	18.271566
1531.492188	19.417971
1530.386719	10.802547
1529.281250	2.084264
1528.175781	8.422711
1527.070313	-1.744243
1525.964844	2.413740
1524.857422	4.806499
1523.751953	1.596506
1522.644531	-0.678315
1521.539063	-0.253612
1520.431641	0.578998
1519.324219	8.257423
1518.216797	12.722324
1517.109375	12.832817
1516.001953	9.730076
1514.894531	-4.247412
1513.787109	-5.999290
1512.677734	-0.607123
1511.570313	3.543578
1510.460938	12.663062
1509.353516	23.228796
1508.244141	17.645502
1507.134766	16.203533
1506.025391	9.593001
1504.916016	8.769793
1503.806641	16.325094
1502.697266	17.474375
1501.585938	10.764172
1500.476563	4.778678
1499.365234	-7.720123
1498.255859	-2.748837
1497.144531	9.868368
1496.033203	8.124527
1494.921875	11.439332
1493.810547	12.482080
1492.699219	11.767664
1491.587891	10.025455
1490.474609	14.681048
1489.363281	7.260743
1488.250000	13.564979
1487.138672	12.854991
1486.025391	13.382990
1484.912109	7.927710
1483.800781	4.539414
1482.687500	-5.963660
1481.572266	-8.111052
1480.458984	-10.673987
1479.345703	-11.789580
1478.232422	-6.828268
1477.117188	-3.103708
1476.003906	-2.572278
1474.888672	0.634847
1473.773438	1.476070
1472.658203	1.180823
1471.542969	2.227606
1470.427734	3.478282
1469.312500	1.539999
1468.197266	10.504356
1467.082031	12.576722
1465.964844	24.416710
1464.849609	24.637438
1463.732422	24.549479
1462.617188	22.094320
1461.500000	25.294603
1460.382813	16.268732
1459.265625	22.345732
1458.148438	21.126432
1457.031250	20.731363
1455.912109	23.315166
1454.794922	24.871462
1453.675781	14.929566
1452.558594	12.383015
1451.439453	5.219682
1450.320313	0.313581
1449.201172	-4.895222
1448.082031	1.381266
1446.962891	12.986048
1445.843750	24.795605
1444.724609	32.296967
1443.605469	35.390339
1442.484375	30.280653
1441.365234	30.194284
1440.244141	24.069788
1439.123047	24.394592
1438.001953	32.090740
1436.882813	43.061352
1435.759766	54.134979
1434.638672	60.396210
1433.517578	55.291340
1432.396484	52.135387
1431.273438	63.297321
1430.152344	70.063202
1429.029297	79.585915
1427.908203	82.768005
1426.785156	75.319740
1425.662109	62.963516
1424.539063	61.650585
1423.416016	47.566242
1422.292969	48.095085
1421.167969	43.723175
1420.044922	37.817806
1418.919922	27.937202
1417.796875	24.999691
1416.671875	18.793613
1415.546875	19.636101
1414.423828	18.028187
1413.298828	17.647329
1412.171875	7.777753
1411.046875	1.585247
1409.921875	-1.853324
1408.796875	-8.551676
1407.669922	-6.483418
1406.544922	-4.414055
1405.417969	-4.484453
1404.291016	-3.843088
1403.164063	-12.772066
1402.037109	-26.793800
1400.910156	-23.910017
1399.783203	-23.061005
1398.656250	-16.307558
1397.529297	-10.772203
1396.400391	-8.400987
1395.273438	-10.200359
1394.144531	-9.145467
1393.015625	-14.602855
1391.888672	-13.246550
1390.759766	-14.434201
1389.630859	-10.633842
1388.501953	-11.206375
1387.371094	-11.781145
1386.242188	-7.175981
1385.113281	-1.855969
1383.982422	3.462494
1382.853516	2.583524
1381.722656	4.748142
1380.591797	4.174407
1379.460938	8.981140
1378.330078	8.710395
1377.199219	2.558260
1376.068359	0.157947
1374.937500	6.482630
1373.804688	5.504423
1372.673828	12.132187
1371.541016	14.400269
1370.408203	8.859213
1369.277344	7.983804
1368.144531	10.858318
1367.011719	7.956639
1365.878906	14.375370
1364.746094	16.437174
1363.611328	8.578752
1362.478516	3.149555
1361.343750	1.466789
1360.210938	1.199912
1359.076172	4.278360
1357.941406	3.107302
1356.808594	-8.183056
1355.673828	-14.007559
1354.539063	-14.167550
1353.402344	-14.020195
1352.267578	-12.055128
1351.132813	-7.463408
1349.996094	-4.893562
1348.861328	-0.101619
1347.724609	-0.964805
1346.587891	-9.102446
1345.453125	-8.454163
1344.316406	-8.812433
1343.179688	-6.445463
1342.041016	-4.075722
1340.904297	-3.830140
1339.767578	-7.417483
1338.628906	-2.326107
1337.492188	-1.171878
1336.353516	2.000869
1335.216797	-1.985823
1334.078125	1.488341
1332.939453	2.741654
1331.800781	4.300818
1330.662109	6.060839
1329.521484	6.510614
1328.382813	-0.394366
1327.244141	0.358144
1326.103516	0.105463
1324.964844	6.090386
1323.824219	8.253620
1322.683594	12.025882
1321.542969	14.184712
1320.402344	11.818644
1319.261719	8.545229
1318.121094	16.640377
1316.978516	21.109438
1315.837891	24.777573
1314.697266	29.550993
1313.554688	28.289408
1312.412109	32.855980
1311.269531	46.966866
1310.128906	64.491280
1308.986328	74.076149
1307.841797	87.774292
1306.699219	109.998489
1305.556641	143.358704
1304.414063	181.429962
1303.269531	217.482498
1302.125000	238.271240
1300.982422	257.746582
1299.837891	289.852051
1298.693359	331.377441
1297.548828	405.870453
1296.404297	499.289886
1295.259766	590.472900
1294.113281	653.970276
1292.968750	658.032288
1291.824219	587.649475
1290.677734	483.333130
1289.531250	368.026978
1288.384766	272.487396
1287.240234	195.809906
1286.093750	146.983093
1284.945313	110.484299
1283.798828	80.703972
1282.652344	71.442505
1281.505859	64.088821
1280.357422	67.630249
1279.210938	75.480186
1278.062500	77.927597
1276.914063	69.276825
1275.765625	61.330780
1274.617188	58.874088
1273.468750	63.424252
1272.320313	71.962982
1271.171875	89.888069
1270.021484	93.331604
1268.873047	96.371391
1267.722656	114.485168
1266.572266	123.006073
1265.423828	136.919403
1264.273438	149.334961
1263.123047	141.590576
1261.972656	146.510590
1260.822266	156.619278
1259.669922	160.645935
1258.519531	160.881073
1257.367188	138.593842
1256.216797	111.022858
1255.064453	83.469002
1253.912109	60.304020
1252.759766	40.135899
1251.607422	32.427334
1250.455078	25.412960
1249.302734	36.823242
1248.150391	36.981800
1246.998047	45.600719
1245.843750	47.946682
1244.689453	45.714901
1243.537109	36.424648
1242.382813	32.507183
1241.228516	28.387114
1240.074219	32.126556
1238.919922	34.574886
1237.765625	27.881933
1236.611328	15.123455
1235.455078	9.323780
1234.300781	9.289901
1233.144531	16.308573
1231.988281	18.661392
1230.833984	22.794682
1229.677734	27.922585
1228.521484	41.682281
1227.365234	54.942642
1226.207031	70.582176
1225.050781	84.128220
1223.894531	100.945641
1222.736328	96.934067
1221.580078	85.885506
1220.421875	59.769833
1219.263672	30.587690
1218.105469	15.488158
1216.947266	13.574612
1215.789063	13.147542
1214.630859	21.438026
1213.472656	21.606512
1212.312500	19.792826
1211.154297	17.485281
1209.994141	12.506616
1208.833984	6.836640
1207.675781	14.624388
1206.515625	14.299239
1205.355469	21.788790
1204.193359	29.276464
1203.033203	33.794201
1201.873047	32.676678
1200.712891	46.189651
1199.550781	63.350082
1198.388672	92.861191
1197.228516	135.305145
1196.066406	184.059052
1194.904297	253.229538
1193.742188	320.409210
1192.580078	355.981415
1191.417969	351.559662
1190.253906	309.235138
1189.091797	240.272690
1187.927734	182.590027
1186.765625	126.998672
1185.601563	84.045876
1184.437500	57.284073
1183.273438	47.489841
1182.109375	47.657356
1180.945313	42.110462
1179.781250	32.917137
1178.615234	29.933634
1177.451172	18.675749
1176.285156	7.130263
1175.121094	4.153928
1173.955078	1.963948
1172.789063	10.603560
1171.623047	20.526758
1170.457031	20.408436
1169.291016	17.824749
1168.125000	20.359192
1166.957031	29.875816
1165.791016	50.800613
1164.623047	74.960602
1163.457031	92.821495
1162.289063	102.620041
1161.121094	101.798172
1159.953125	89.578644
1158.785156	76.869171
1157.617188	69.274429
1156.449219	60.798817
1155.279297	52.914383
1154.111328	43.759182
1152.941406	28.127304
1151.773438	25.845123
1150.603516	22.879154
1149.433594	15.894653
1148.263672	13.718552
1147.093750	6.735447
1145.923828	-2.208074
1144.751953	-2.711091
1143.582031	-0.080485
1142.410156	4.115257
1141.240234	9.588052
1140.068359	10.063189
1138.896484	7.499761
1137.724609	2.877487
1136.552734	3.938066
1135.380859	5.686821
1134.208984	4.301455
1133.037109	3.893462
1131.863281	7.008248
1130.691406	7.385044
1129.517578	4.144053
1128.343750	-0.272646
1127.171875	-1.462666
1125.998047	4.486039
1124.824219	2.717053
1123.650391	3.484450
1122.474609	-0.635723
1121.300781	-7.488407
1120.125000	-14.629253
1118.951172	-3.409474
1117.775391	-5.572815
1116.601563	2.522263
1115.425781	5.636302
1114.250000	3.864881
1113.074219	-1.519540
1111.896484	3.839376
1110.720703	7.141289
1109.544922	9.664898
1108.367188	12.088700
1107.191406	9.736698
1106.013672	2.413013
1104.835938	-0.039536
1103.658203	2.775867
1102.480469	6.856003
1101.302734	16.392916
1100.125000	17.158882
1098.947266	14.027146
1097.769531	9.342585
1096.589844	6.893543
1095.410156	5.518397
1094.232422	7.843502
1093.052734	13.572212
1091.873047	17.841595
1090.693359	17.340322
1089.513672	17.232626
1088.333984	15.759085
1087.152344	11.467463
1085.972656	4.361995
1084.791016	3.960552
1083.611328	6.864126
1082.429688	4.521433
1081.248047	10.243950
1080.066406	8.291713
1078.884766	1.771486
1077.703125	3.606944
1076.521484	2.918720
1075.337891	2.616240
1074.156250	6.974460
1072.972656	11.425649
1071.791016	12.871243
1070.607422	12.376540
1069.423828	9.357946
1068.240234	9.152786
1067.056641	10.692180
1065.873047	13.203756
1064.689453	8.929427
1063.503906	7.755605
1062.320313	12.199832
1061.134766	15.386105
1059.949219	18.766794
1058.763672	18.756069
1057.580078	19.516706
1056.394531	24.828386
1055.207031	38.463387
1054.021484	55.769703
1052.835938	82.164215
1051.648438	121.511673
1050.462891	189.759659
1049.275391	273.070129
1048.089844	355.680420
1046.902344	431.783295
1045.714844	463.309601
1044.527344	440.903442
1043.339844	378.024963
1042.150391	288.597656
1040.962891	198.518234
1039.773438	148.837173
1038.585938	116.651787
1037.396484	110.541748
1036.207031	108.103821
1035.019531	112.032204
1033.830078	106.120583
1032.638672	98.862694
1031.449219	85.910423
1030.259766	72.773941
1029.070313	61.276665
1027.878906	55.380234
1026.687500	46.494087
1025.498047	35.781445
1024.306641	29.794962
1023.115234	24.192368
1021.923828	28.611019
1020.732422	41.980999
1019.539063	56.603405
1018.347656	68.234543
1017.156250	76.203819
1015.962891	77.241661
1014.769531	77.506371
1013.578125	73.446716
1012.384766	61.882511
1011.191406	43.112755
1009.998047	29.249493
1008.804688	22.310270
1007.609375	24.989454
1006.416016	19.693214
1005.220703	17.089396
1004.027344	7.275853
1002.832031	6.014452
1001.636719	-0.234297
1000.441406	0.141908
999.246094	1.761061
998.050781	-0.454887
996.855469	-1.998523
995.660156	-8.047844
994.462891	-15.256250
993.267578	-12.291348
992.070313	-4.239626
990.873047	1.983749
989.675781	1.210296
988.478516	-7.236579
987.281250	-9.352825
986.083984	-9.457689
984.886719	-4.390209
983.687500	6.043930
982.490234	7.948762
981.291016	5.257915
980.093750	-2.220941
978.894531	-5.966363
977.695313	-10.663897
976.496094	-5.793462
975.296875	0.511623
974.097656	3.658292
972.896484	4.890937
971.697266	4.881063
970.496094	-3.450738
969.296875	-4.703529
968.095703	-6.911849
966.894531	-8.259775
965.693359	-3.111492
964.492188	-1.211064
963.291016	-1.507934
962.087891	-0.850701
960.886719	-5.922255
959.685547	-5.553692
958.482422	-0.505508
957.279297	-3.855941
956.076172	-5.394148
954.875000	-5.309970
953.669922	-6.468066
952.466797	8.013401
951.263672	10.101124
950.060547	5.701548
948.855469	-1.460427
947.652344	-12.148465
946.447266	-18.641096
945.242188	-10.837328
944.037109	-7.613200
942.833984	-1.624674
941.626953	-0.493822
940.421875	0.157528
939.216797	-4.615963
938.011719	-7.008951
936.804688	-3.406832
935.597656	0.288691
934.392578	6.454867
933.185547	9.675172
931.978516	2.527960
930.771484	-3.098572
929.564453	-6.631749
928.357422	-7.407679
927.148438	-0.960057
925.941406	-1.449813
924.732422	-1.562032
923.523438	0.226329
922.316406	-2.353875
921.107422	-3.320098
919.898438	-1.722446
918.689453	-1.266916
917.478516	-0.049128
916.269531	3.253486
915.060547	-4.352011
913.849609	-6.551503
912.640625	-5.148169
911.429688	-0.425535
910.218750	2.494250
909.007813	4.373551
907.796875	-7.586521
906.585938	-12.627242
905.375000	-14.445870
904.162109	-13.989457
902.951172	-7.851883
901.738281	-6.070254
900.525391	-5.523152
899.314453	-4.974201
898.101563	-4.048275
896.888672	-5.488405
895.675781	-2.387139
894.460938	-8.743882
893.248047	-5.833547
892.035156	-4.154312
890.820313	-0.488696
889.605469	1.569083
888.392578	7.877723
887.177734	2.749771
885.962891	2.915939
884.748047	-1.546335
883.531250	-2.610394
882.316406	-4.806686
881.101563	-3.789721
879.884766	-3.059141
878.669922	3.332094
877.453125	3.966566
876.236328	5.829683
875.019531	3.916409
873.802734	-5.635060
872.585938	-10.093013
871.369141	-4.556534
870.150391	-1.849373
868.933594	3.024375
867.714844	2.623236
866.496094	-0.986329
865.279297	0.113879
864.060547	6.112397
862.841797	2.978052
861.623047	1.726514
860.402344	-4.423728
859.183594	-11.039853
857.964844	-11.537971
856.744141	-3.852026
855.523438	-3.882649
854.304688	-3.722117
853.083984	-1.118382
851.863281	-1.433925
850.642578	3.232841
849.419922	10.063583
848.199219	7.307214
846.978516	4.264968
845.755859	-0.934498
844.535156	-1.719568
843.312500	0.502230
842.089844	9.385884
840.867188	11.697718
839.644531	27.146578
838.421875	32.456066
837.197266	35.512779
835.974609	32.187698
834.751953	25.396349
833.527344	11.475161
832.302734	9.561947
831.078125	2.961544
829.853516	0.300240
828.628906	-0.392150
827.404297	-2.023807
826.179688	-3.466270
824.955078	0.991467
823.728516	-1.107020
822.503906	-4.890064
821.277344	-8.298764
820.050781	-10.022153
818.824219	-15.207135
817.597656	-9.537658
816.371094	-5.180920
815.144531	-4.190924
813.917969	4.277254
812.689453	10.312847
811.462891	12.791532
810.234375	17.328739
809.005859	23.730261
807.777344	26.016010
806.548828	25.971155
805.320313	21.999979
804.091797	11.307327
802.863281	-0.412075
801.632813	0.288010
800.404297	5.655743
799.173828	3.463818
797.943359	1.461377
796.714844	1.690899
795.484375	-1.528120
794.251953	3.555027
793.021484	14.043932
791.791016	20.706341
790.560547	37.150070
789.328125	77.073128
788.095703	123.687263
786.865234	173.734772
785.632813	197.505753
784.400391	175.356796
783.167969	123.135941
781.935547	71.390289
780.701172	35.299297
779.468750	27.701445
778.236328	22.437653
777.001953	13.080646
775.767578	4.186710
774.535156	-3.307072
773.300781	-3.362951
772.066406	0.862346
770.830078	-0.121880
769.595703	-2.685889
768.361328	0.696977
767.125000	0.825128
765.890625	9.128737
764.654297	9.165032
763.417969	8.271978
762.181641	8.861212
760.945313	15.484047
759.708984	19.694271
758.472656	35.687073
757.236328	62.524345
755.998047	111.705544
754.761719	193.698563
753.523438	298.101990
752.285156	373.827759
751.046875	387.988892
749.808594	331.614807
748.570313	224.563171
747.332031	119.485321
746.093750	56.036949
744.853516	24.567789
743.615234	14.592182
742.375000	11.102503
741.134766	7.703285
739.894531	0.604826
738.654297	-1.218730
737.414063	-5.725965
736.173828	-1.259795
734.933594	-2.434747
733.691406	-0.095802
732.451172	-3.215260
731.208984	-2.727973
729.966797	-5.845654
728.724609	0.739727
727.482422	-2.101286
726.240234	-2.077395
724.998047	-5.193926
723.755859	-5.356327
722.511719	-3.213198
721.269531	2.256827
720.025391	0.801477
718.781250	1.283257
717.539063	-1.373983
716.294922	2.979152
715.050781	3.554270
713.804688	7.905179
712.560547	8.659307
711.316406	12.363124
710.070313	21.316936
708.824219	37.825550
707.580078	51.836658
706.333984	70.084465
705.087891	72.208084
703.841797	61.253948
702.595703	46.249771
701.347656	28.303703
700.101563	14.598659
698.853516	10.468123
697.607422	9.465992
696.359375	10.119842
695.111328	9.856236
693.863281	6.372095
692.615234	-2.812323
691.367188	-5.009076
690.119141	-4.539313
688.869141	-3.425228
687.621094	-6.629950
686.371094	-8.640300
685.121094	-10.653452
683.873047	-7.062479
682.623047	-3.288457
681.373047	0.391732
680.121094	1.590563
678.871094	-2.256629
677.621094	-5.094038
676.369141	-4.171966
675.119141	-3.525092
673.867188	1.248627
672.615234	5.380527
671.363281	6.665480
670.111328	6.758882
668.859375	9.785267
667.605469	14.090574
666.353516	14.274762
665.101563	9.145792
663.847656	10.060194
662.593750	10.148553
661.339844	8.682765
660.085938	12.160604
658.832031	4.106195
657.578125	-4.955267
656.324219	-4.591280
655.068359	-3.037606
653.814453	-6.238897
652.558594	-3.678640
651.304688	-3.226332
650.048828	0.242951
648.792969	7.916874
647.537109	17.961845
646.281250	20.876759
645.023438	21.782511
643.767578	20.405117
642.509766	24.319178
641.253906	29.510201
639.996094	40.269218
638.738281	41.899933
637.480469	29.935003
636.222656	13.316522
634.964844	1.082937
633.707031	-6.770596
632.447266	-2.858153
631.189453	-0.768491
629.929688	2.684263
628.669922	9.781511
627.410156	9.860827
626.150391	6.660273
624.890625	-0.090277
623.630859	-7.845470
622.371094	-7.129375
621.109375	1.962182
619.849609	4.135722
618.587891	4.760845
617.326172	3.107012
616.066406	7.638436
614.804688	10.624378
613.541016	10.430264
612.279297	5.774817
611.017578	-3.605742
609.753906	-5.986403
608.492188	-4.364071
607.228516	-1.199473
605.964844	1.508199
604.703125	12.390373
603.439453	13.097690
602.175781	14.804942
600.910156	12.332099
599.646484	11.856235
598.382813	11.834356
597.117188	12.723316
595.851563	11.158354
594.587891	8.143248
593.322266	10.296824
592.056641	12.360827
590.789063	15.601695
589.523438	10.412721
588.257813	11.929875
586.990234	17.429438
585.724609	18.403786
584.457031	17.111551
583.189453	19.440928
581.921875	16.604027
580.654297	13.954279
579.386719	23.161898
578.119141	19.422979
576.851563	16.499916
575.582031	17.558933
574.314453	20.516005
573.044922	17.681892
571.775391	19.556076
570.505859	19.887411
569.236328	17.869310
567.966797	14.949331
566.697266	20.522223
565.425781	26.815395
564.156250	28.230013
562.884766	38.134129
561.615234	43.068508
560.343750	59.100063
559.072266	94.263596
557.800781	131.134888
556.529297	181.792297
555.255859	232.165634
553.984375	269.799957
552.710938	294.439331
551.439453	303.018646
550.166016	290.761780
548.892578	283.559753
547.619141	257.166840
546.345703	229.790787
545.072266	192.602142
543.798828	152.634460
542.523438	123.125435
541.250000	103.444725
539.974609	84.307114
538.699219	69.682167
537.423828	51.821632
536.148438	38.011051
534.873047	28.976391
533.597656	21.474201
532.322266	18.113222
531.044922	10.975029
529.769531	7.163033
528.492188	9.647648
527.214844	9.883973
525.937500	8.772802
524.660156	7.122291
523.382813	7.356067
522.105469	4.540511
520.828125	4.507416
519.548828	8.243546
518.269531	10.991547
516.992188	14.816248
515.712891	18.193401
514.433594	15.105009
513.154297	8.791595
511.875000	7.770071
510.595703	4.148703
509.314453	0.798434
508.035156	1.660074
506.753906	1.807466
505.472656	-2.886449
504.191406	-5.605015
502.910156	-9.668819
501.628906	-15.343025
500.347656	-10.180542
499.066406	-8.242149
497.785156	-3.260979
496.501953	-3.113495
495.218750	0.164143
493.937500	-5.862717
492.654297	-3.837349
491.371094	-3.334825
490.087891	-6.137119
488.802734	-12.069052
487.519531	-7.809961
486.236328	-10.971263
484.951172	-5.997664
483.666016	-3.078151
482.382813	-2.754416
481.097656	-4.216644
479.812500	-2.906575
478.525391	-2.047106
477.240234	-2.167192
475.955078	-5.501358
474.667969	-4.460557
473.382813	-1.102676
472.095703	1.184119
470.808594	7.307665
469.521484	6.652203
468.234375	7.153506
466.947266	5.248616
465.660156	2.812060
464.371094	-1.050137
463.083984	2.302703
461.794922	-3.695056
460.505859	-0.517871
459.218750	-2.504915
457.929688	0.935189
456.640625	6.778547
455.349609	11.825803
454.060547	8.145679
452.771484	6.693521
451.480469	5.236608
450.189453	9.388879
448.900391	16.474184
447.609375	18.754807
446.318359	21.125381
445.025391	27.313461
443.734375	37.145519
442.443359	37.469406
441.150391	39.392303
439.859375	41.223343
438.566406	36.484310
437.273438	45.950890
435.980469	49.293934
434.687500	48.639999
433.394531	51.980652
432.101563	71.996338
430.806641	100.075180
429.513672	145.091293
428.218750	194.963715
426.923828	240.652710
425.630859	250.254944
424.335938	232.825516
423.039063	184.030731
421.744141	122.665382
420.449219	73.637596
419.152344	50.489151
417.857422	29.386892
416.560547	25.555704
415.263672	21.461992
413.966797	14.894112
412.669922	7.352063
411.373047	5.476892
410.076172	-2.591300
408.779297	-6.317656
407.480469	-7.393317
406.181641	-12.004510
404.884766	-12.545841
403.585938	-6.812488
402.287109	-2.670721
400.988281	-3.565501
399.689453	2.342720
398.388672	3.655208
397.089844	-3.947660
395.789063	-5.191886
394.490234	-6.348171
393.189453	-6.533985
391.888672	-2.656181
390.587891	2.456333
389.287109	1.477683
387.986328	4.206273
386.683594	7.463608
385.382813	15.127550
384.080078	16.444679
382.777344	20.933681
381.476563	22.514856
380.173828	19.427343
378.871094	24.881392
377.566406	26.376892
376.263672	22.058685
374.960938	15.104795
373.656250	7.621954
372.353516	1.108387
371.048828	6.217770
369.744141	4.551190
368.439453	4.646096
367.134766	4.385966
365.830078	3.074964
364.523438	1.238145
363.218750	2.302367
361.912109	1.168876
360.605469	-0.313669
359.300781	0.403719
357.994141	-1.516520
356.687500	-7.298018
355.378906	-9.651739
354.072266	-10.862900
352.765625	-12.423944
351.457031	-9.245704
350.150391	-7.906412
348.841797	-10.253374
347.533203	-11.458382
346.224609	-14.064745
344.916016	-13.251156
343.607422	-8.225954
342.296875	-2.240609
340.988281	-2.298802
339.677734	-2.094237
338.367188	-0.665470
337.058594	2.166962
335.748047	2.986380
334.437500	8.711871
333.125000	9.616914
331.814453	9.824977
330.503906	12.398772
329.191406	19.781971
327.880859	22.441250
326.568359	32.971352
325.255859	43.501472
323.943359	42.313168
322.630859	35.704987
321.318359	31.285730
320.003906	18.477633
318.691406	14.676978
317.376953	12.626074
316.062500	2.804675
314.750000	-1.861700
313.435547	-6.610461
312.121094	-10.136777
310.804688	-11.737374
309.490234	-10.455916
308.175781	-9.613461
306.859375	-5.276866
305.542969	-3.122227
304.228516	1.301356
302.912109	-2.557826
301.595703	-3.102957
300.279297	7.943989
298.960938	16.986866
297.644531	29.428141
296.328125	54.321087
295.009766	82.861534
293.691406	117.055527
292.373047	145.238235
291.054688	146.511917
289.736328	120.106575
288.417969	86.051834
287.099609	50.791187
285.779297	25.115278
284.460938	13.191296
283.140625	10.405700
281.820313	6.319630
280.500000	5.540518
279.179688	2.849552
277.859375	-4.010108
276.539063	-9.212904
275.218750	-8.680820
273.896484	-6.498240
272.574219	-2.227776
271.253906	3.259591
269.931641	7.356102
268.609375	9.889480
267.287109	20.928156
265.964844	35.175369
264.640625	39.706375
263.318359	38.772430
261.994141	27.175976
260.669922	18.613911
259.347656	13.786198
258.023438	6.540602
256.699219	2.154552
255.373047	-2.918846
254.048828	-12.495836
252.724609	-6.389971
251.398438	-1.581630
250.074219	-2.315823
248.748047	6.302660
247.421875	4.794172
246.095703	-0.001538
244.769531	0.831780
243.441406	3.480467
242.115234	4.142361
240.789063	9.391841
239.460938	7.204668
238.132813	0.871109
236.804688	-4.335820
235.476563	-4.871497
234.148438	-8.256043
232.820313	-8.181128
231.492188	-4.650857
230.162109	-2.500811
228.833984	2.931459
227.503906	4.999887
226.173828	4.650878
224.843750	1.543297
223.513672	-0.266059
222.183594	-1.470047
220.853516	1.900209
219.521484	2.253824
218.191406	3.300976
216.859375	3.831183
215.527344	5.569122
214.197266	6.879121
212.865234	8.623295
211.531250	8.128937
210.199219	5.569252
208.867188	10.244249
207.533203	10.964256
206.201172	12.545088
204.867188	17.310823
203.533203	20.013124
202.199219	16.524374
200.865234	16.223534
199.531250	12.394132
198.195313	20.261791
196.861328	31.916264
195.525391	40.734520
194.191406	40.956490
192.855469	39.975990
191.519531	39.599262
190.183594	43.953022
188.847656	53.972958
187.509766	66.140472
186.173828	83.798744
184.835938	104.031433
183.500000	123.229797
182.162109	141.993713
180.824219	172.163528
179.486328	207.214188
178.148438	262.579529
176.810547	326.332123
175.470703	403.864380
174.132813	474.517639
172.792969	526.640991
171.453125	537.963745
170.113281	504.741089
168.773438	436.322754
167.433594	362.791779
166.093750	283.895905
164.753906	224.036285
163.412109	180.464966
162.072266	149.317764
160.730469	135.042114
159.388672	130.786392
158.046875	121.402267
156.705078	121.087883
155.363281	123.340096
154.019531	124.999008
152.677734	126.234673
151.333984	132.255981
149.992188	139.813095
148.648438	161.381927
147.304688	181.414734
145.960938	204.856216
144.617188	235.033463
143.271484	270.500458
141.927734	320.208710
140.582031	384.241577
139.238281	443.475433
137.892578	518.130676
136.546875	597.881531
135.201172	655.353516
133.855469	715.534424
132.507813	767.427551
131.162109	794.845337
129.816406	817.149292
128.468750	849.924500
127.121094	901.505920
125.773438	995.663330
124.425781	1134.328125
123.078125	1288.865845
121.730469	1412.714233
120.380859	1501.115479
119.033203	1507.974854
117.683594	1420.991089
116.335938	1281.381104
114.986328	1119.283813
113.636719	954.094971
112.287109	835.311523
110.935547	756.097107
109.585938	715.752869
108.234375	717.068176
106.884766	750.160095
105.533203	797.939636
104.181641	865.318665
102.830078	921.900940
101.478516	951.639587
100.126953	940.966125
98.775391	880.654297
97.421875	785.657349
96.070313	698.501160
94.716797	622.485291
93.363281	565.419861
92.009766	533.224854
90.656250	501.893280
89.302734	489.218353
87.949219	502.907349
86.593750	536.342834
85.240234	566.129944
83.884766	607.515869
82.529297	649.731934
81.173828	726.395447
79.818359	842.403015
78.462891	1004.500732
77.105469	1171.373169
75.750000	1318.821533
74.394531	1419.775146
73.037109	1468.763306
71.679688	1489.310791
70.322266	1512.982178
68.964844	1497.688354
67.607422	1451.807251
66.250000	1365.298950
64.890625	1243.076782
63.533203	1117.695923
62.173828	1047.262207
60.814453	1039.842529
59.455078	1123.367920
58.095703	1293.052124
56.736328	1457.798828
55.376953	1495.670166
54.015625	1338.059448
52.656250	1000.475891
51.294922	611.103027
49.933594	301.052460
48.574219	119.365646
47.210938	55.613865
45.849609	31.252415
44.488281	9.932471
43.126953	5.982706
41.763672	2.369126
40.402344	-1.912352
39.039063	-0.204693
37.675781	-3.210218
36.312500	-7.982485
34.949219	-8.707732
33.583984	-4.037359
